,participant,trial,onset_ms,difficulty,correctResponse,participantResponse,RT,errorLR,isComission,isOmission,time_ms,ECG,filtered_ecg,normalized_ecg,RR_intervals,Heart_Rate
1,1,3,11342,0,0,0,0.39580642715,0,,0.0,11342,-172.5,-15.836892788451623,-0.05887982134751602,2.798,21.44388849177984
2,1,11,21968,0,1,1,0.687467748217,0,,0.0,21968,154.0,-48.7339996666125,-0.18353635058137166,10.626,5.646527385657821
3,1,15,27046,0,2,1,0.534686240399,0,,0.0,27046,179.5,-91.81279244949319,-0.34677419431599343,5.078,11.815675462780622
4,1,16,28242,1,0,0,0.638847312006,0,,0.0,28242,163.5,-103.75209715659886,-0.445720876132272,1.196,50.16722408026756
5,1,17,29852,1,0,0,0.79857695867,0,,0.0,29852,207.0,-103.75209715659886,-0.3920156282136734,1.61,37.267080745341616
6,1,19,32942,1,0,0,0.569369914909,0,,0.0,32942,52.5,-47.22704961094768,-0.17782608662522273,3.09,19.417475728155342
7,1,22,36954,1,2,1,0.701349200783,0,,0.0,36954,2761.0,45.18432277561004,0.1723469844022823,4.012,14.955134596211368
8,1,23,38570,0,0,0,0.548581947896,0,,0.0,38570,1337.0,193.32621129044847,0.7336988906596673,1.616,37.12871287128713
9,1,29,46770,1,2,1,0.659588522842,0,,0.0,46770,35.5,427.71716315411817,1.621873119820887,8.2,7.317073170731708
10,1,31,49620,0,0,2,0.56940232892,0,,1.0,49620,-120.5,711.5392616479144,2.697356074876542,2.85,21.052631578947366
11,1,32,51144,1,0,0,0.652778656833,0,,0.0,51144,-39.0,926.3769701830868,3.5114374831212314,1.524,39.37007874015748
12,1,36,56766,0,1,1,0.9999583756,0,,0.0,56766,386.5,926.3769701830868,3.656184556389541,5.622,10.672358591248667
13,1,39,60574,1,0,0,0.722150282334,0,,0.0,60574,278.5,812.7252325151941,3.0807786044682466,3.808,15.756302521008404
14,1,41,63522,0,2,1,0.729063068949,0,,0.0,63522,97.5,547.1186794512965,2.0743195511132066,2.948,20.352781546811396
15,1,45,68328,0,0,0,0.673564057957,0,,0.0,68328,-54.0,270.2734033026768,1.0252737676256167,4.806,12.484394506866417
16,1,48,72042,1,0,0,0.541621549806,0,,0.0,72042,35.0,54.137319312830954,0.2062724441305841,3.714,16.15508885298869
17,1,49,73248,0,1,1,0.854125576825,0,,0.0,73248,135.5,-75.01513184534504,-0.28312306298956474,1.206,49.75124378109453
18,1,52,77508,1,0,0,0.715179905792,0,,0.0,77508,156.0,-107.46669366758,-0.4624023805797492,4.26,14.084507042253522
19,1,60,89292,0,2,1,0.611076424111,0,,0.0,89292,164.0,-107.46669366758,-0.4060912948149361,11.784,5.091649694501018
20,1,66,97624,0,0,0,0.562468247139,0,,0.0,97624,64.0,-55.96044903525269,-0.2109194302033945,8.332,7.201152184349495
21,1,67,99018,0,1,1,0.930458740811,0,,0.0,99018,99.5,5.294433282023796,0.02119280558014463,1.394,43.04160688665711
22,1,68,100318,0,2,1,1.0277483651,0,,0.0,100318,151.0,53.99792561571171,0.20574424161890684,1.3,46.15384615384615
23,1,73,107298,1,2,1,1.00690394856,0,,0.0,107298,39.0,78.63454396942751,0.2990994216779811,6.98,8.595988538681947
24,1,76,111342,1,0,0,0.694412180783,0,,0.0,111342,263.5,78.63454396942751,0.3032086630739697,4.044,14.83679525222552
25,1,79,115904,0,2,1,0.6388481673,0,,0.0,115904,49.0,66.24518556837835,0.2521526058552688,4.562,13.1521262604121
26,1,80,117314,0,0,0,0.715201858387,0,,0.0,117314,1.5,48.80101133834353,0.18605164983744968,1.41,42.5531914893617
27,1,84,122922,0,0,0,0.638814810762,0,,0.0,122922,-106.5,31.373024026134924,0.12001203067222017,5.608,10.699001426533524
28,1,89,129222,0,0,0,0.833301402285,0,,0.0,129222,37.0,10.308849611908373,0.04019386054014618,6.3,9.523809523809524
29,1,91,131858,0,1,1,0.611021970271,0,,0.0,131858,150.0,-16.93392671433178,-0.06303679606746611,2.636,22.761760242792107
30,1,94,135998,0,1,1,0.750137560091,0,,0.0,135998,165.5,-43.9107865980126,-0.16525981936195974,4.14,14.492753623188406
31,1,96,138690,0,0,0,0.673590572131,0,,0.0,138690,179.0,-50.21485590562739,-0.21863277324427174,2.692,22.288261515601782
32,1,98,141292,1,1,1,0.72904026106,0,,0.0,141292,175.5,-50.21485590562739,-0.1891477376171248,2.602,23.059185242121448
33,1,101,145548,1,1,1,0.576348559311,0,,0.0,145548,-56.5,-22.475830088026942,-0.0840366500203635,4.256,14.097744360902254
34,1,104,150110,1,1,1,0.944384668765,0,,0.0,150110,62.5,11.819596982454376,0.04591851360641505,4.562,13.1521262604121
35,1,107,154228,1,1,1,0.520773997179,0,,0.0,154228,123.0,35.60171157402754,0.13603573497202473,4.118,14.570179698882951
36,1,108,155732,1,2,1,0.513865772142,0,,0.0,155732,114.5,35.60171157402754,0.15390092583642628,1.504,39.8936170212766
37,1,110,158232,1,0,0,0.666602519474,0,,0.0,158232,-9.0,29.43668966583465,0.1126747070077027,2.5,24.0
38,1,111,159742,0,2,1,0.805437002038,0,,0.0,159742,25.5,10.674092692779116,0.041577870841011055,1.51,39.735099337748345
39,1,113,162258,1,1,1,0.715248329465,0,,0.0,162258,-22.0,-11.025808063204336,-0.04064924788339524,2.516,23.84737678855326
40,1,116,166068,0,0,0,0.597195256643,0,,0.0,166068,131.0,-32.96035944222707,-0.12376552480517658,3.81,15.748031496062993
41,1,119,169672,1,1,1,0.569401275759,0,,0.0,169672,100.5,-51.021234097241305,-0.1922033347852513,3.604,16.64816870144284
42,1,121,172324,1,2,1,0.576270727384,0,,0.0,172324,656.0,-51.021234097241305,-0.2141802525254445,2.652,22.62443438914027
43,1,128,181600,1,0,0,0.840194517097,0,,0.0,181600,-171.5,-39.508606761655805,-0.14857870325360673,9.276,6.468305304010349
44,1,129,185918,0,2,1,0.812427905683,0,,0.0,185918,-118.0,0.5083184928564595,0.0030568503321012127,4.318,13.895321908290876
45,1,133,191714,0,0,0,0.729130922426,0,,0.0,191714,977.0,45.59011987935632,0.17388466547294643,5.796,10.351966873706004
46,1,137,196720,1,2,1,0.638859856344,0,,0.0,196720,139.5,84.1030537734722,0.3198211664435084,5.006,11.985617259288853
47,1,138,198136,1,1,1,0.742878663732,0,,0.0,198136,238.5,122.43361902440903,0.46506662056353776,1.416,42.37288135593221
48,1,145,208266,0,1,1,0.666636446213,0,,0.0,208266,346.0,163.61881853756606,0.6211290988273119,10.13,5.923000987166831
49,1,147,210970,0,0,1,0.701364025912,0,,0.0,210970,90.0,197.4585270865032,0.7493574148801175,2.704,22.189349112426033
50,1,151,216082,1,0,0,0.819409401071,0,,0.0,216082,57.5,197.4585270865032,0.8013759130403949,5.112,11.737089201877934
51,1,152,217576,1,0,1,0.84020848693,0,,0.0,217576,68.5,196.05343958599957,0.7440331372245972,1.494,40.16064257028113
52,1,157,224018,0,0,0,0.812471810872,0,,0.0,224018,-26.0,150.6883817009099,0.5721319823481966,6.442,9.313877677739832
53,1,158,225422,1,1,1,0.784684102158,0,,0.0,225422,-65.5,82.71261563524861,0.3145523994036809,1.404,42.73504273504274
54,1,159,226718,1,0,0,0.867985932093,0,,0.0,226718,-19.0,4.893640023468679,0.019674085507378116,1.296,46.2962962962963
55,1,161,229530,1,0,0,0.437334464605,0,,0.0,229530,49.0,-68.83040688360826,-0.2596873745306531,2.812,21.337126600284495
56,1,162,230866,1,1,1,0.673574321507,0,,0.0,230866,-24.0,-125.49707268192003,-0.47441354810678027,1.336,44.91017964071856
57,1,171,244338,0,1,1,0.631908581412,0,,0.0,244338,803.5,-140.02249614533602,-0.579712621312505,13.472,4.453681710213777
58,1,174,248898,1,2,1,0.722190196142,0,,0.0,248898,-27.5,-140.02249614533602,-0.5294545242420858,4.56,13.157894736842106
59,1,177,252752,0,0,0,0.937545722694,0,,0.0,252752,43.5,-83.18659963723552,-0.31408708719558187,3.854,15.568240788790867
60,1,178,254124,1,0,0,0.541630387865,0,,0.0,254124,323.0,-3.448761229716621,-0.011937654380563822,1.372,43.731778425655975
61,1,182,259270,1,1,1,0.604140259406,0,,0.0,259270,-18.5,66.91151684710456,0.25467752529069515,5.146,11.65954139137194
62,1,184,261768,1,2,1,0.569410684015,0,,0.0,261768,-10.0,102.53621525407944,0.39988256753789686,2.498,24.019215372297836
63,1,194,275524,1,0,0,0.819411966959,0,,0.0,275524,-22.0,102.53621525407944,0.3896696774840075,13.756,4.36173306193661
64,1,195,277130,0,2,1,0.493031048953,0,,0.0,277130,-72.0,61.30387468966215,0.2334285683194583,1.606,37.359900373599004
65,1,196,278140,0,2,1,0.486058676719,0,,0.0,278140,-0.5,-5.366515652416884,-0.01920457335742359,1.01,59.40594059405941
66,1,199,281946,1,2,1,0.583281587931,0,,0.0,281946,23.0,-78.05135402397623,-0.2946281755872407,3.806,15.764582238570677
67,1,201,284744,0,1,1,0.506917918392,0,,0.0,284744,-28.0,-137.64248970414775,-0.5204360004061886,2.798,21.44388849177984
68,1,205,289752,1,0,0,0.520728951595,0,,0.0,289752,-10.5,-172.18087986406897,-0.6513118205385281,5.008,11.980830670926517
69,1,206,290950,1,0,0,0.763812031049,0,,0.0,290950,-17.0,-172.18087986406897,-0.6827870176778,1.198,50.08347245409015
70,1,211,298192,0,0,0,0.736081056963,0,,0.0,298192,-50.5,-169.97769119611263,-0.6429633097223042,7.242,8.285004142502071
71,1,215,303922,0,1,1,0.854094215976,0,,0.0,303922,189.0,-150.61705176277061,-0.5696003199479445,5.73,10.471204188481675
72,1,217,306842,1,0,2,0.56940232892,0,,1.0,306842,-21.0,-128.7505235128724,-0.4867418020812586,2.92,20.547945205479454
73,1,218,308672,0,0,0,0.666637871705,0,,0.0,308672,-6.0,-106.80993423085317,-0.4036026458213586,1.83,32.78688524590164
74,1,222,313768,1,0,0,0.867983651304,0,,0.0,313768,-51.5,-88.39566193666687,-0.3338257113005822,5.096,11.773940345368917
75,1,225,318340,1,2,1,0.67357831289,0,,0.0,318340,-54.5,-82.47614747300844,-0.2993914353168628,4.572,13.123359580052494
76,1,227,321048,0,2,1,0.416635163268,0,,0.0,321048,133.0,-82.47614747300844,-0.31139498112962194,2.708,22.156573116691284
77,1,229,323648,1,2,1,0.777755635116,0,,0.0,323648,53.5,-93.3811408628862,-0.3527171141772164,2.6,23.076923076923077
78,1,231,326468,0,0,0,0.638845031217,0,,0.0,326468,-59.5,-102.68700348018221,-0.38797968421705503,2.82,21.27659574468085
79,1,232,327764,1,2,1,0.6319111473,0,,0.0,327764,-182.0,-105.854312035504,-0.39998152051777913,1.296,46.2962962962963
80,1,235,332048,0,0,0,0.541627536879,0,,0.0,332048,-158.5,-108.60529645603204,-0.4104057858220054,4.284,14.005602240896359
81,1,237,334514,0,0,0,0.62489629537,0,,0.0,334514,-83.5,-120.64220182005869,-0.4560170564712202,2.466,24.330900243309
82,1,238,335812,0,2,1,0.840240132879,0,,0.0,335812,242.5,-143.55304547753124,-0.542832783542223,1.298,46.22496147919877
83,1,244,344464,1,0,2,0.56940232892,0,,1.0,344464,-15.5,-165.28500393440524,-0.6251813780469474,8.652,6.934812760055479
84,1,248,350428,1,0,2,0.56940232892,0,,1.0,350428,255.5,-165.28500393440524,-0.6378425698365893,5.964,10.060362173038229
85,1,249,351968,0,0,0,0.743011519695,0,,0.0,351968,233.0,-143.79266382864068,-0.5437407658794137,1.54,38.96103896103896
86,1,251,354894,0,0,0,0.597049286142,0,,0.0,354894,11.5,-92.90057494719731,-0.35089611273354127,2.926,20.505809979494188
87,1,252,356394,1,0,2,0.56940232892,0,,1.0,356394,71.0,-29.867107692003767,-0.11204431088027159,1.5,40.0
88,1,254,359540,1,2,0,1.03468481491,0,,0.0,359540,-86.5,23.456527872004447,0.09001416678947859,3.146,19.071837253655435
89,1,256,362476,0,2,1,0.465245050829,0,,0.0,362476,-24.0,35.19772061481716,0.18143423744824336,2.936,20.435967302452315
90,1,257,367114,1,1,1,0.819409115971,0,,0.0,367114,19.0,35.19772061481716,0.13450489789861464,4.638,12.936610608020699
91,1,258,368516,1,0,0,0.687386495107,0,,0.0,368516,224.0,-4.750491180567167,-0.016870280774543493,1.402,42.796005706134096
92,1,260,371166,0,1,2,0.56940232892,0,,1.0,371166,-78.5,-51.191818960190865,-0.19284972952853016,2.65,22.641509433962266
93,1,267,380972,0,1,1,0.631822196525,0,,0.0,380972,-196.5,-85.61656273170061,-0.3232949110520763,9.806,6.118702834998981
94,1,279,397836,1,2,1,0.749890664672,0,,0.0,397836,14.5,-105.08367567456703,-0.3970613593494551,16.864,3.557874762808349
95,1,281,400656,0,1,1,0.513871474113,0,,0.0,400656,-108.0,-117.62127391736807,-0.444569898251203,2.82,21.27659574468085
96,1,282,401892,1,2,1,0.506909935631,0,,0.0,401892,-79.5,-129.68943489658875,-0.4902996053490571,1.236,48.54368932038835
97,1,284,404324,0,0,0,0.569399850267,0,,0.0,404324,744.5,-129.68943489658875,-0.5252146237228219,2.432,24.67105263157895
98,1,285,405686,1,2,1,0.618008597434,0,,0.0,405686,1484.0,-123.90576174574257,-0.4683836166915211,1.362,44.052863436123346
99,1,286,406816,1,0,0,0.708294488644,0,,0.0,406816,1076.0,-42.325443837606684,-0.1592525030684587,1.13,53.09734513274337
100,1,288,409142,1,0,0,1.06246995773,0,,0.0,409142,-88.0,132.06641520070292,0.5015680351894881,2.326,25.79535683576956
101,1,292,415316,1,0,0,0.902709805512,0,,0.0,415316,-300.0,357.2495208964754,1.3548511066188005,6.174,9.718172983479105
102,1,293,416966,0,2,1,0.583351437097,0,,0.0,416966,-281.0,528.9900818523314,2.0056251195653543,1.65,36.36363636363637
103,1,294,418074,0,1,0,0.965215400573,0,,0.0,418074,-143.5,528.9900818523314,2.0994724248829746,1.108,54.15162454873646
104,1,296,421016,0,0,0,0.749924021213,0,,0.0,421016,-91.0,412.94152304495816,1.5658840013844817,2.942,20.3942895989123
105,1,297,422316,1,0,2,0.56940232892,0,,1.0,422316,669.0,168.39081734237777,0.6392115645808837,1.3,46.15384615384615
106,1,303,431664,0,0,2,0.56940232892,0,,1.0,431664,53.5,-75.59558412884549,-0.2853225623958504,9.348,6.418485237483953
107,1,307,437662,1,1,1,0.694344612406,0,,0.0,437662,-8.5,-229.3718909477429,-0.8680248880878993,5.998,10.003334444814937
108,1,308,439164,0,2,1,0.576350555002,0,,0.0,439164,-55.5,-229.3718909477429,-1.0009847691373344,1.502,39.94673768308922
109,1,309,440468,1,1,1,0.541638085529,0,,0.0,440468,-99.5,-213.8999111405346,-0.8093971397486294,1.304,46.012269938650306
110,1,314,447674,1,1,1,0.520787967014,0,,0.0,447674,181.0,-134.32212595847324,-0.5078541942959229,7.206,8.32639467110741
111,1,316,450166,0,0,0,0.833251510025,0,,0.0,450166,11.0,-69.0308249838253,-0.26044681592655544,2.492,24.077046548956663
112,1,318,453074,0,0,0,0.458261274654,0,,0.0,453074,-114.5,-35.55346569215167,-0.13359154465085518,2.908,20.63273727647868
113,1,319,454372,0,0,0,0.423535120446,0,,0.0,454372,50.0,-35.55346569215167,-0.12819925253343042,1.298,46.22496147919877
114,1,321,457066,0,0,0,0.576399591966,0,,0.0,457066,191.5,-55.869549677358876,-0.210574986586921,2.694,22.271714922048996
115,1,327,464720,1,0,2,0.56940232892,0,,1.0,464720,59.0,-84.03020995799486,-0.31728376752984955,7.654,7.839038411288215
116,1,333,473398,0,1,1,0.638804832308,0,,0.0,473398,27.0,-101.2643367963273,-0.382640661960033,8.678,6.914035492048859
117,1,337,479340,0,1,1,0.965199149949,0,,0.0,479340,-38.5,-101.2643367963273,-0.38258879401741486,5.942,10.097610232245035
118,1,339,481746,0,2,1,0.534661436817,0,,0.0,481746,53.5,-90.39923836179817,-0.3414178343446135,2.406,24.937655860349125
119,1,340,482946,0,0,0,0.597194686445,0,,0.0,482946,169.5,-78.39051232846609,-0.29591334322386986,1.2,50.0
120,1,344,488348,1,0,0,0.847197109784,0,,0.0,488348,-143.0,-69.9102343178149,-0.2637791489416442,5.402,11.10699740836727
121,1,345,489938,0,0,0,0.590240275427,0,,0.0,489938,-53.5,-69.9102343178149,-0.252225714482374,1.59,37.73584905660377
122,1,346,491636,1,0,0,0.798562703738,0,,0.0,491636,-883.5,-76.94059250460116,-0.2904191830966657,1.698,35.3356890459364
123,1,348,494540,1,0,0,0.854128142713,0,,0.0,494540,2277.0,-104.68884420073,-0.39556523018092066,2.904,20.66115702479339
124,1,349,496042,1,2,1,0.90275599149,0,,0.0,496042,-79.0,-104.68884420073,-0.45523005689745183,1.502,39.94673768308922
125,1,351,498536,1,2,1,0.617927344323,0,,0.0,498536,-57.5,-74.94770560110837,-0.2828675657017045,2.494,24.057738572574177
126,1,358,508120,0,0,0,0.861015270453,0,,0.0,508120,179.0,32.72539152881546,0.12513653720579399,9.584,6.260434056761269
127,1,360,511348,0,0,0,0.583476310299,0,,0.0,511348,-4.5,145.8299015187675,0.5537218139677241,3.228,18.587360594795538
128,1,362,514146,0,2,0,0.555612765349,0,,0.0,514146,-45.5,194.9938218644437,0.78713608483932,2.798,21.44388849177984
129,1,365,518048,0,0,0,0.715225806673,0,,0.0,518048,-19.5,194.9938218644437,0.7400179431841897,3.902,15.376729882111738
130,1,370,525248,1,1,1,0.798572967289,0,,0.0,525248,-158.5,118.27309194524007,0.44930119573777666,7.2,8.333333333333334
131,1,371,526448,0,2,1,0.743016366374,0,,0.0,526448,-69.0,5.942255950731453,0.023647590608481598,1.2,50.0
132,1,373,529162,0,2,1,0.625019172885,0,,0.0,529162,32.5,-108.67771052982754,-0.4106801834199602,2.714,22.107590272660282
133,1,376,533398,0,0,0,0.645834224266,0,,0.0,533398,358.0,-195.25388773145855,-0.738742034094591,4.236,14.164305949008499
134,1,377,534898,1,1,1,0.729022299845,0,,0.0,534898,381.0,-196.80294881065163,-0.8664003913539081,1.5,40.0
135,1,378,536200,0,1,1,0.555499866288,0,,0.0,536200,242.0,-196.80294881065163,-0.7446118687404958,1.302,46.08294930875576
136,1,380,539088,0,0,0,0.555518112602,0,,0.0,539088,482.5,-106.65552913611612,-0.40301756083874196,2.888,20.775623268698062
137,1,381,540388,1,0,0,0.722144010162,0,,0.0,540388,363.0,15.193952239143135,0.05870490896509264,1.3,46.15384615384615
138,1,382,541696,1,2,1,0.527740667438,0,,0.0,541696,140.5,136.2508356058816,0.5174239986484261,1.308,45.87155963302752
139,1,389,557510,0,1,1,0.527741522736,0,,0.0,557510,-93.0,225.07813800310814,0.8540160053271435,15.814,3.7941064879220945
140,1,393,562414,1,0,0,0.576342002043,0,,0.0,562414,-98.5,225.07813800310814,0.9670483029980997,4.904,12.234910277324634
141,1,397,568036,0,0,0,0.61125204487,0,,0.0,568036,-102.5,213.11623753561483,0.8086889496428501,5.622,10.672358591248667
142,1,399,570752,1,0,2,0.56940232892,0,,1.0,570752,4.5,110.68546454532327,0.42054950944826763,2.716,22.091310751104565
143,1,404,577462,0,1,1,0.597135671029,0,,0.0,577462,48.0,-19.634536951743364,-0.07327017921133872,6.71,8.941877794336811
144,1,405,578574,1,1,1,0.576364524833,0,,0.0,578574,80.5,-137.03396128231327,-0.5181301124967446,1.112,53.956834532374096
145,1,406,579866,0,1,1,0.402737745177,0,,0.0,579866,111.0,-209.62925539878287,-0.7932144059814594,1.292,46.43962848297213
146,1,412,588416,1,0,0,0.534632356756,0,,0.0,588416,29.0,-209.62925539878287,-0.8535769203594582,8.55,7.017543859649122
147,1,413,589612,1,0,0,0.576398451572,0,,0.0,589612,67.0,-194.22551671972752,-0.7348452427578367,1.196,50.16722408026756
148,1,417,594986,0,0,0,0.492986573565,0,,0.0,594986,-42.0,-138.9811716436095,-0.5255086484338525,5.374,11.164867882396726
149,1,420,599510,1,0,1,0.874964576495,0,,0.0,599510,138.5,-85.29917251524104,-0.32209222891521955,4.524,13.26259946949602
150,1,421,601242,0,0,0,0.513838117573,0,,0.0,601242,440.0,-47.880018535550754,-0.18030037228627027,1.732,34.64203233256351
151,1,422,602462,1,0,0,0.652725628486,0,,0.0,602462,425.5,-22.290735995851552,-0.08333527566553861,1.22,49.18032786885246
152,1,429,611638,1,0,0,0.708206393165,0,,0.0,611638,62.0,7.386568391443206,0.029120502760155632,9.176,6.538796861377507
153,1,430,612746,0,0,0,0.909678186361,0,,0.0,612746,21.5,46.98298240927339,0.1791626192250016,1.108,54.15162454873646
154,1,431,614140,0,0,0,0.597187558978,0,,0.0,614140,-62.5,81.77646855568678,0.31100507087346113,1.394,43.04160688665711
155,1,432,615246,1,1,1,0.652682578591,0,,0.0,615246,-63.0,81.77646855568678,0.3394582354051809,1.106,54.24954792043399
156,1,433,616746,0,1,1,0.569390442011,0,,0.0,616746,2293.0,68.71276339476785,0.2615029626690572,1.5,40.0
157,1,434,617946,0,2,1,0.45131655699,0,,0.0,617946,-140.0,68.71276339476785,0.23849062097816176,1.2,50.0
158,1,435,619050,1,0,0,0.694490868007,0,,0.0,619050,-82.0,117.7464761800531,0.4473056982683132,1.104,54.347826086956516
159,1,439,624558,1,0,0,0.687468033315,0,,0.0,624558,-2.5,216.45335878081957,0.8213342547026682,5.508,10.893246187363834
160,1,441,627716,1,0,0,1.01384381955,0,,0.0,627716,-101.5,277.87021980375613,1.092035608059338,3.158,18.999366687777073
161,1,447,636520,0,1,1,0.618017150393,0,,0.0,636520,5.5,277.87021980375613,1.0540602740426812,8.804,6.815084052703316
162,1,448,638022,1,2,1,0.548486724951,0,,0.0,638022,71.5,183.4471205112223,0.6962641954724725,1.502,39.94673768308922
163,1,449,639512,1,0,0,0.694425865517,0,,0.0,639512,68.5,42.42633867518958,0.16189619531271623,1.49,40.26845637583892
164,1,455,648986,1,0,0,0.590212050662,0,,0.0,648986,30.5,-93.86046421456771,-0.35453340719114773,9.474,6.333122229259025
165,1,456,650284,1,2,1,0.64579174457,0,,0.0,650284,-20.0,-187.20764324542287,-0.7082525167424703,1.298,46.22496147919877
166,1,458,653082,0,0,0,0.840245264655,0,,0.0,653082,57.0,-217.05599738466645,-0.8522772785547483,2.798,21.44388849177984
167,1,459,654716,1,1,1,0.548580522403,0,,0.0,654716,70.0,-217.05599738466645,-0.8213564515085754,1.634,36.719706242350064
168,1,461,656964,0,2,1,0.722140874079,0,,0.0,656964,-72.0,-181.95735260351694,-0.6883576666782091,2.248,26.690391459074732
169,1,462,658372,0,2,1,0.590253104867,0,,0.0,658372,-122.0,-141.50942046704367,-0.5350889049754424,1.408,42.61363636363637
170,1,468,667114,1,0,2,0.56940232892,0,,1.0,667114,64.5,-114.54181719604354,-0.43290095762891917,8.742,6.863417982155113
171,1,472,672474,0,2,1,0.68049423559,0,,0.0,672474,-95.5,-114.54181719604354,-0.41551306772800256,5.36,11.194029850746269
172,1,480,683844,1,2,1,0.506912501518,0,,0.0,683844,557.0,-121.61714305349136,-0.45971138712518334,11.37,5.277044854881267
173,1,482,686248,1,1,1,0.444223302935,0,,0.0,686248,300.0,-121.61714305349136,-0.4880682199822093,2.404,24.958402662229616
174,1,483,687438,1,2,1,0.416536519138,0,,0.0,687438,184.5,-109.05043855648884,-0.41209255631718383,1.19,50.420168067226896
175,1,484,688544,0,2,1,0.534690801978,0,,0.0,688544,116.5,-55.502677130349696,-0.20918480177368717,1.106,54.24954792043399
176,1,485,689738,1,0,0,0.541771226592,0,,0.0,689738,245.5,13.563484853051387,0.052526602582955335,1.194,50.25125628140704
177,1,487,692438,0,0,0,0.666635876014,0,,0.0,692438,-105.0,71.15057881200839,0.27074054121818275,2.7,22.22222222222222
178,1,488,694040,0,0,0,0.5971832825,0,,0.0,694040,-54.5,76.52470964254545,0.36396986023299105,1.602,37.45318352059925
179,1,489,695346,0,1,1,0.541615562737,0,,0.0,695346,-77.0,76.52470964254545,0.2911046571103356,1.306,45.94180704441041
180,1,490,696546,0,1,1,0.3679428822,0,,0.0,696546,-41.0,16.93556178040038,0.0653043647013605,1.2,50.0
181,1,493,700362,1,2,1,0.520764588924,0,,0.0,700362,-180.5,-65.88561621389891,-0.24852872202161122,3.816,15.723270440251573
182,1,495,702966,0,1,1,0.486056110833,0,,0.0,702966,-118.5,-150.463354668479,-0.5690179177811314,2.604,23.04147465437788
183,1,500,710036,0,0,0,0.625001211669,0,,0.0,710036,2.0,-219.84491908342264,-0.831924471990119,7.07,8.486562942008486
184,1,501,711342,0,1,2,0.56940232892,0,,1.0,711342,8.0,-262.86164722714597,-0.9949271350891254,1.306,45.94180704441041
185,10,3,10170,0,0,1,0.548493170681,0,,0.0,10170,-319.0,-262.86164722714597,-1.041521299494446,-701.172,-0.08557101538566857
186,10,6,14306,1,1,1,0.80547366188,0,,0.0,14306,620.5,-260.8082432948764,-0.9871462013960837,4.136,14.506769825918761
187,10,7,15820,0,2,1,0.611033992787,0,,0.0,15820,1092.5,-219.23847246113414,-0.8296264726134545,1.514,39.63011889035667
188,10,8,17206,0,0,0,0.770657518522,0,,0.0,17206,1350.0,-128.41840285973421,-0.48548330211466817,1.386,43.29004329004329
189,10,10,19856,0,1,1,0.590200071445,0,,0.0,19856,1362.5,42.25565186409889,0.1612494142588271,2.65,22.641509433962266
190,10,11,21250,1,0,2,0.56940232892,0,,1.0,21250,916.5,296.0817031519709,1.1230687833561763,1.394,43.04160688665711
191,10,18,31446,1,0,0,1.0693132649,0,,0.0,31446,597.0,587.4666726111296,2.227209615503493,10.196,5.884660651235779
192,10,19,33056,0,0,0,0.89569810899,0,,0.0,33056,811.5,836.3362043986019,3.1702473172558046,1.61,37.267080745341616
193,10,21,35872,0,2,1,0.763733690044,0,,0.0,35872,485.0,965.1662470310266,3.6815745215645204,2.816,21.306818181818183
194,10,22,37442,1,2,2,0.56940232892,0,,1.0,37442,451.0,965.1662470310266,3.658421126432593,1.57,38.216560509554135
195,10,23,38998,0,0,0,0.59707742936,0,,0.0,38998,212.0,836.7876565867349,3.171957998474555,1.556,38.56041131105398
196,10,24,40426,0,2,1,0.652642820711,0,,0.0,40426,842.0,634.0112320259122,2.4035802383930562,1.428,42.016806722689076
197,10,31,50344,1,0,0,0.80545627106,0,,0.0,50344,265.0,418.51650975331444,1.5870092175368458,9.918,6.049606775559589
198,10,32,52052,1,2,1,0.659669283559,0,,0.0,52052,420.5,245.50780182331735,0.9314298336821349,1.708,35.1288056206089
199,10,37,59098,0,1,1,0.687451836686,0,,0.0,59098,373.0,141.3438976963621,0.5367230648466546,7.046,8.515469770082316
200,10,38,60596,1,2,1,0.687433305477,0,,0.0,60596,295.0,100.58368564580266,0.38227098540158294,1.498,40.053404539385845
201,10,39,61800,1,2,1,0.610915393074,0,,0.0,61800,262.5,100.58368564580266,0.3796342572375671,1.204,49.83388704318937
202,10,40,63394,0,0,0,0.541573333539,0,,0.0,63394,-32.0,105.90306038569362,0.4196738575215668,1.594,37.641154328732746
203,10,43,67474,0,1,1,0.486273080973,0,,0.0,67474,112.5,105.90306038569362,0.4024276148348312,4.08,14.705882352941176
204,10,46,72098,0,1,1,0.569397510604,0,,0.0,72098,-130.5,69.65001275558004,0.2650544680576073,4.624,12.975778546712803
205,10,48,75096,1,0,1,0.798560667034,0,,0.0,75096,-10.0,-0.1837355677325659,0.00043445993300824374,2.998,20.0133422281521
206,10,64,97982,1,0,0,0.520764500594,0,,0.0,97982,-233.5,-92.83337764716197,-0.35064148298061754,22.886,2.6216901162282618
207,10,65,99074,0,2,1,0.74994362237,0,,0.0,99074,-334.0,-193.1512737530609,-0.7307746294885756,1.092,54.94505494505494
208,10,66,100472,0,0,0,0.638891526021,0,,0.0,100472,-171.5,-289.3410983476308,-1.0952653345825425,1.398,42.91845493562232
209,10,68,102782,1,0,0,0.444394552738,0,,0.0,102782,-181.0,-372.8669584329354,-1.4117686629168302,2.31,25.974025974025974
210,10,69,103878,1,2,1,0.756844073021,0,,0.0,103878,-52.5,-434.17446557812525,-1.6440803091963594,1.096,54.74452554744525
211,10,71,106072,0,2,1,0.541630067535,0,,0.0,106072,-21.5,-455.8360886393124,-1.755133398202581,2.194,27.347310847766636
212,10,75,111624,1,0,2,0.56940232892,0,,1.0,111624,-16.5,-455.8360886393124,-1.7261623828078914,5.552,10.806916426512968
213,10,78,116444,0,0,0,0.569357597236,0,,0.0,116444,-91.0,-415.48385312853173,-1.5732562429387835,4.82,12.448132780082986
214,10,81,120802,1,1,0,0.736089123122,0,,0.0,120802,-15.5,-356.33541660288887,-1.3491259315954944,4.358,13.767783386874715
215,10,82,122002,1,2,1,0.749913117157,0,,0.0,122002,-218.5,-297.1178136141203,-1.124733528778187,1.2,50.0
216,10,83,123402,1,0,0,0.590240269903,0,,0.0,123402,19.0,-254.26783082916526,-0.9623627114450376,1.4,42.85714285714286
217,10,86,127292,1,0,0,0.527834297951,0,,0.0,127292,180.0,-234.18220704199845,-0.8862525489897681,3.89,15.424164524421593
218,10,95,140280,0,0,0,0.722169051918,0,,0.0,140280,-27.0,-228.89041848742818,-0.8662004514878419,12.988,4.619648906683092
219,10,96,141574,0,0,0,0.555480860545,0,,0.0,141574,178.0,-223.37394343428565,-0.8452969527006458,1.294,46.3678516228748
220,10,98,144170,0,2,1,0.756899096446,0,,0.0,144170,300.5,-206.4218463912198,-0.7810606176195519,2.596,23.112480739599384
221,10,99,145478,0,0,0,1.02772524894,0,,0.0,145478,350.5,-171.87230637724375,-0.650142547507204,1.308,45.87155963302752
222,10,100,147200,1,0,0,0.874909232731,0,,0.0,147200,163.5,-117.94229888638833,-0.44578635350314,1.722,34.84320557491289
223,10,105,153778,0,1,1,0.631866773747,0,,0.0,153778,-167.0,-53.60995854887698,-0.20201275074632324,6.578,9.121313469139556
224,10,108,158208,1,1,1,0.659668713368,0,,0.0,158208,-178.5,-2.7386338401579753,-0.00924677897853735,4.43,13.544018058690746
225,10,112,164544,1,0,0,0.999948682816,0,,0.0,164544,208.0,-2.7386338401579753,0.03238865821325603,6.336,9.469696969696969
226,10,116,170222,1,2,1,0.562411531315,0,,0.0,170222,95.5,-26.491323546409976,-0.09925250105362203,5.678,10.567101091933779
227,10,117,171420,1,1,1,0.562457716776,0,,0.0,171420,11.5,-86.01463183528763,-0.324803308523993,1.198,50.08347245409015
228,10,120,175520,0,0,0,0.590239984813,0,,0.0,175520,-235.0,-143.10880947876157,-0.5411494465250056,4.1,14.634146341463415
229,10,127,185040,1,0,0,0.715212437462,0,,0.0,185040,25.0,-185.16658693233828,-0.7005183717034461,9.52,6.302521008403362
230,10,128,186346,0,1,1,0.569368430868,0,,0.0,186346,149.0,-212.36800226843013,-0.8035922997118944,1.306,45.94180704441041
231,10,129,197330,1,2,1,0.666534952561,0,,0.0,197330,87.5,-215.63014126250633,-0.8479584814719723,10.984,5.462490895848507
232,10,132,201826,0,1,1,0.597168945009,0,,0.0,201826,227.5,-215.63014126250633,-0.8159534756166946,4.496,13.345195729537366
233,10,137,208558,0,1,1,0.840221382328,0,,0.0,208558,87.0,-185.34429128984127,-0.7011917442440193,6.732,8.9126559714795
234,10,138,209856,1,0,0,0.972058933792,0,,0.0,209856,-107.5,-140.40721559350055,-0.5309123360586255,1.298,46.22496147919877
235,10,140,212600,1,0,0,0.694383362741,0,,0.0,212600,-375.0,-99.33577203174053,-0.37528091156907434,2.744,21.865889212827987
236,10,141,213898,1,0,2,0.56940232892,0,,1.0,213898,-385.0,-99.33577203174053,-0.33272660596737463,1.298,46.22496147919877
237,10,142,215556,0,1,1,0.631902695779,0,,0.0,215556,-423.0,-126.9563255418296,-0.47994307377189777,1.658,36.18817852834741
238,10,144,217954,1,0,0,0.465324266155,0,,0.0,217954,-248.5,-216.0483882170606,-0.8175383327261804,2.398,25.0208507089241
239,10,145,219156,0,0,0,0.6457777219,0,,0.0,219156,-210.5,-331.81755064164236,-1.2562207382522206,1.202,49.91680532445923
240,10,147,221962,1,0,0,0.652559572834,0,,0.0,221962,-194.0,-437.5763654774522,-1.6569710790692755,2.806,21.382751247327157
241,10,148,223056,1,1,1,1.02772667442,0,,0.0,223056,137.5,-500.29504036516227,-1.8946300427770775,1.094,54.84460694698354
242,10,151,226872,0,0,0,0.590198360871,0,,0.0,226872,35.5,-500.29504036516227,-1.8981677411840345,3.816,15.723270440251573
243,10,156,233854,0,2,1,0.59018296572,0,,0.0,233854,-321.0,-441.3916884437852,-1.6714284269646622,6.982,8.593526210254941
244,10,157,234958,0,2,1,0.590169281135,0,,0.0,234958,-400.5,-346.9773827929143,-1.3136656700130716,1.104,54.347826086956516
245,10,161,240222,0,0,0,0.687459534263,0,,0.0,240222,938.5,-256.305206274755,-0.9700829086263312,5.264,11.398176291793312
246,10,162,241522,1,1,1,0.534629548376,0,,0.0,241522,813.5,-181.46737627662776,-0.6865010065000673,1.3,46.15384615384615
247,10,165,245578,1,0,0,0.659773343403,0,,0.0,245578,227.0,-96.10913666898489,-0.36305426905871546,4.056,14.792899408284024
248,10,169,251534,0,0,0,0.597182344492,0,,0.0,251534,933.5,24.6005630266119,0.09434924258271064,5.956,10.073875083948959
249,10,170,252624,1,1,1,0.673530625099,0,,0.0,252624,351.0,172.9270754481185,0.6564007415278079,1.09,55.04587155963302
250,10,175,260074,0,0,0,0.812390648072,0,,0.0,260074,236.5,317.46815793944387,1.2041081658251858,7.45,8.053691275167784
251,10,177,263136,1,0,0,0.729110556316,0,,0.0,263136,495.5,420.6306550259399,1.5950203175085764,3.062,19.59503592423253
252,10,179,265986,1,0,0,0.617977777951,0,,0.0,265986,643.0,438.3840629529713,1.7384416110657104,2.85,21.052631578947366
253,10,180,267474,0,0,0,0.555511365757,0,,0.0,267474,590.0,438.3840629529713,1.6622930482825318,1.488,40.32258064516129
254,10,182,269888,0,2,1,0.659677266231,0,,0.0,269888,439.5,391.1934517094025,1.4834743505826227,2.414,24.855012427506214
255,10,183,271078,0,1,1,0.479079552184,0,,0.0,271078,145.5,344.4028903825339,1.3061715562209868,1.19,50.420168067226896
256,10,185,273674,1,1,1,0.576288838201,0,,0.0,273674,-125.5,302.7822499224391,1.1484590679021462,2.596,23.112480739599384
257,10,187,276626,0,2,1,0.479136001086,0,,0.0,276626,20.0,250.310134984658,0.9496272449722685,2.952,20.32520325203252
258,10,188,277632,1,2,1,0.708265231155,0,,0.0,277632,49.0,170.43828090659662,0.6469699885235599,1.006,59.642147117296226
259,10,190,280576,0,1,1,0.583298765509,0,,0.0,280576,365.5,66.89178241793671,0.25460274590490944,2.944,20.380434782608695
260,10,191,281676,1,0,0,0.736072587584,0,,0.0,281676,253.0,-33.53815422074067,-0.12595495416641822,1.1,54.54545454545454
261,10,192,282974,0,1,1,0.791621158303,0,,0.0,282974,90.0,-98.91873013899651,-0.3737006207828016,1.298,46.22496147919877
262,10,194,285902,0,0,0,0.67356312598,0,,0.0,285902,183.0,-98.91873013899651,-0.4354711114310365,2.928,20.491803278688526
263,10,201,295576,1,0,0,0.76379612595,0,,0.0,295576,-149.5,-94.00972953492015,-0.35509901610134853,9.674,6.202191440975811
264,10,203,298274,1,0,0,0.597077714458,0,,0.0,298274,-75.0,-63.03814859795922,-0.23773885434651532,2.698,22.23869532987398
265,10,206,302370,0,0,0,0.65272293254,0,,0.0,302370,102.5,-63.03814859795922,-0.187858046018483,4.096,14.6484375
266,10,207,303474,0,1,1,0.66656659816,0,,0.0,303474,4.5,-65.79385742468207,-0.2481810217745094,1.104,54.347826086956516
267,10,208,304774,1,0,1,0.687476639989,0,,0.0,304774,-44.5,-102.45096387452752,-0.3870852627680316,1.3,46.15384615384615
268,10,209,306174,1,1,1,0.611079893159,0,,0.0,306174,229.5,-142.92321263405356,-0.5404461670973119,1.4,42.85714285714286
269,10,211,308684,0,0,0,0.666621621582,0,,0.0,308684,231.0,-170.28838878794872,-0.6441406315938916,2.51,23.904382470119526
270,10,212,310072,1,0,0,0.548571001742,0,,0.0,310072,-15.5,-170.28838878794872,-0.6497438313161468,1.388,43.22766570605187
271,10,214,312580,0,0,0,0.729122815421,0,,0.0,312580,261.5,-145.96540890547817,-0.5519739172380309,2.508,23.923444976076556
272,10,215,313876,0,0,0,0.534649790156,0,,0.0,313876,-213.0,-105.2311671092538,-0.3976202465004702,1.296,46.2962962962963
273,10,217,317024,1,2,1,0.840181468968,0,,0.0,317024,-607.0,-78.1466919227902,-0.2731165645485823,3.148,19.05972045743329
274,10,218,318448,0,2,1,0.791604907859,0,,0.0,318448,-653.0,-78.1466919227902,-0.2949894381023492,1.424,42.13483146067416
275,10,227,331496,1,1,1,0.569397795702,0,,0.0,331496,48.5,-145.9019338839481,-0.5517333922609777,13.048,4.598405885959534
276,10,230,335702,0,2,1,0.638800295474,0,,0.0,335702,53.0,-263.63183598877737,-0.9978456001759026,4.206,14.26533523537803
277,10,231,337100,1,0,0,0.80547964889,0,,0.0,337100,-49.5,-381.0026433215338,-1.442597095487181,1.398,42.91845493562232
278,10,233,339660,0,0,0,0.708238717274,0,,0.0,339660,228.5,-425.90374843469533,-1.6811252523233615,2.56,23.4375
279,10,234,340750,0,0,1,0.597177212774,0,,0.0,340750,386.5,-425.90374843469533,-1.6127402008642384,1.09,55.04587155963302
280,10,239,347850,1,0,0,0.742979880528,0,,0.0,347850,282.0,-330.4169485737752,-1.2509134571814347,7.1,8.450704225352114
281,10,242,352348,0,0,0,0.611026580307,0,,0.0,352348,-1391.5,-190.720950310727,-0.7215654401711362,4.498,13.339261894175188
282,10,243,353850,0,0,0,0.916622405599,0,,0.0,353850,-526.0,-75.71344278580433,-0.28576916249266343,1.502,39.94673768308922
283,10,246,357846,0,0,0,0.576387196135,0,,0.0,357846,285.0,-75.71344278580433,-0.21659149045821588,3.996,15.015015015015015
284,10,248,360396,1,1,1,0.708234440841,0,,0.0,360396,171.5,-143.84713466368652,-0.5439471714234158,2.55,23.529411764705884
285,10,256,370548,1,0,0,0.895777935722,0,,0.0,370548,-127.0,-267.7183369324744,-1.0133305188418151,10.152,5.91016548463357
286,10,260,387718,1,1,1,0.979105068229,0,,0.0,387718,-419.5,-353.78844283638466,-1.3394747208991256,17.17,3.4944670937682
287,10,262,390528,1,0,0,0.701327147905,0,,0.0,390528,-553.5,-367.04196898856907,-1.4302541746578141,2.81,21.352313167259787
288,10,263,391926,0,0,0,0.680502349613,0,,0.0,391926,-728.5,-367.04196898856907,-1.3896961150284142,1.398,42.91845493562232
289,10,268,398822,1,0,2,0.56940232892,0,,1.0,398822,316.0,-367.04196898856907,-1.3727427521702262,6.896,8.700696055684455
290,10,275,409194,0,0,0,0.6805157491,0,,0.0,409194,424.0,-371.304327670656,-1.4172278117423882,10.372,5.784805244890089
291,10,281,417498,0,0,0,0.777734443269,0,,0.0,417498,-117.0,-371.304327670656,-1.4058474088679183,8.304,7.22543352601156
292,10,288,426774,1,0,0,0.777638936284,0,,0.0,426774,441.5,-319.4416402781016,-1.2093248808826942,9.276,6.468305304010349
293,10,290,429818,0,0,0,1.02772895518,0,,0.0,429818,658.0,-213.09329789295177,-0.8063406518863341,3.044,19.71090670170828
294,10,292,432676,1,1,1,0.986018063079,0,,0.0,432676,362.0,-66.91458103760041,-0.25242776348143964,2.858,20.99370188943317
295,10,294,435722,0,0,1,0.652639399566,0,,0.0,435722,14.0,94.23069337047869,0.3581976840555268,3.046,19.697964543663822
296,10,295,437118,1,0,0,0.722170477395,0,,0.0,437118,162.5,232.54774732035537,0.8823204874103098,1.396,42.97994269340975
297,10,296,438524,0,2,1,0.604131261374,0,,0.0,438524,29.5,306.91139638393093,1.172371395598476,1.406,42.67425320056899
298,10,299,443070,1,1,1,0.784679083714,0,,0.0,443070,161.5,306.91139638393093,1.1641055826091746,4.546,13.198416190057193
299,10,303,448628,1,0,2,0.56940232892,0,,1.0,448628,88.0,239.53833405765084,0.9088098161894913,5.558,10.795250089960417
300,10,304,449924,0,2,1,0.611067634054,0,,0.0,449924,137.0,140.41154428390936,0.533190111604105,1.296,46.2962962962963
301,10,306,452928,1,0,0,0.930392516588,0,,0.0,452928,-136.5,44.23920162358625,0.1687656505496388,3.004,19.97336884154461
302,10,309,457026,0,1,1,0.541528858648,0,,0.0,457026,-147.5,-29.367532105777613,-0.11015127636816185,4.098,14.641288433382138
303,10,314,463578,0,2,1,0.617972076041,0,,0.0,463578,141.0,-79.02558801074375,-0.2983198262816889,6.552,9.157509157509159
304,10,315,464978,0,0,0,1.01382713008,0,,0.0,464978,117.0,-109.05490259107414,-0.4121094718185938,1.4,42.85714285714286
305,10,318,469198,0,0,0,0.638818256488,0,,0.0,469198,114.0,-109.05490259107414,-0.4484537803707123,4.22,14.218009478672986
306,10,322,474794,0,0,0,0.583264268957,0,,0.0,474794,-301.5,-107.61779148222053,-0.40666384756912416,5.596,10.72194424588992
307,10,324,477626,1,0,0,0.597217981427,0,,0.0,477626,-277.5,-88.34111025434076,-0.3336189994031553,2.832,21.186440677966104
308,10,327,481424,1,2,1,0.715154848178,0,,0.0,481424,-218.0,-88.34111025434076,-0.3159824718429632,3.798,15.797788309636651
309,10,330,485732,0,0,0,0.847252691801,0,,0.0,485732,-108.5,-109.25876477217354,-0.41288196382015535,4.308,13.92757660167131
310,10,337,495976,1,0,0,1.01375300526,0,,0.0,495976,-170.5,-160.25580963056092,-0.6061243251248833,10.244,5.8570870753611874
311,10,339,498880,0,0,2,0.56940232892,0,,1.0,498880,-306.5,-217.79478676993915,-0.8241559353946203,2.904,20.66115702479339
312,10,342,503298,0,0,0,0.631891577053,0,,0.0,503298,-295.0,-265.4525144498514,-1.0047446706214862,4.418,13.580805794477138
313,10,351,515324,1,2,1,0.749824167375,0,,0.0,515324,-17.5,-296.7599141906258,-1.123377345691545,12.026,4.989190088142358
314,10,353,518218,0,2,1,0.534581937434,0,,0.0,518218,2099.0,-296.7599141906258,-1.1313241644439016,2.894,20.73255010366275
315,10,354,519428,1,0,0,0.958140002971,0,,0.0,519428,1234.5,-227.63340769113952,-0.8614372787366583,1.21,49.586776859504134
316,10,356,522524,1,0,0,0.708244419187,0,,0.0,522524,293.0,-33.733609651521064,-0.12669559059111143,3.096,19.37984496124031
317,10,361,528998,0,1,1,0.666626183112,0,,0.0,528998,172.0,263.06692609461385,0.997966368221556,6.474,9.267840593141798
318,10,364,533298,0,2,1,0.416645355781,0,,0.0,533298,747.0,560.2493488743863,2.1240754060235396,4.3,13.953488372093023
319,10,366,535802,1,0,0,0.742925997485,0,,0.0,535802,713.0,753.0733021164172,2.854740411105184,2.504,23.961661341853034
320,10,367,537096,1,1,1,0.604120997934,0,,0.0,537096,782.5,753.0733021164172,3.058729519835876,1.294,46.3678516228748
321,10,371,542794,0,2,1,0.625099177585,0,,0.0,542794,137.5,752.7547632952095,2.8535333765770403,5.698,10.530010530010529
322,10,372,544198,0,1,1,0.659681542664,0,,0.0,544198,239.0,639.382628154042,2.423933991717101,1.404,42.73504273504274
323,10,375,547794,0,0,0,0.659677266231,0,,0.0,547794,28.5,500.1331308819716,1.8962778944260932,3.596,16.685205784204673
324,10,377,550842,1,2,1,0.624946366413,0,,0.0,550842,213.0,352.8597942278605,1.3382171791180786,3.048,19.68503937007874
325,10,385,570600,0,2,1,0.659639348534,0,,0.0,570600,-304.0,210.34027481617593,0.7981700344333927,19.758,3.0367446097783177
326,10,386,571792,1,1,1,0.729094020779,0,,0.0,571792,-500.5,78.77581474484451,0.29963473697518583,1.192,50.33557046979866
327,10,388,574500,1,1,1,0.423578307313,0,,0.0,574500,-114.5,-46.32390100983478,-0.17440379875005743,2.708,22.156573116691284
328,10,390,577230,0,1,1,0.722170762492,0,,0.0,577230,-127.0,-168.08737541555882,-0.6358003635935595,2.73,21.978021978021978
329,10,391,578826,0,1,1,0.5277809851,0,,0.0,578826,44.5,-273.6198943166664,-1.0356932045123954,1.596,37.59398496240601
330,10,395,584138,1,1,1,0.548530233093,0,,0.0,584138,-81.5,-340.19260372964186,-1.2879562052635272,5.312,11.295180722891565
331,10,398,588020,1,0,0,0.680500924136,0,,0.0,588020,-250.5,-340.19260372964186,-1.3439151773520788,3.882,15.455950540958268
332,10,401,592112,1,0,0,0.541485239039,0,,0.0,592112,-155.5,-327.0480125058405,-1.2381475966759845,4.092,14.66275659824047
333,10,404,595860,1,1,1,0.638812269481,0,,0.0,595860,96.5,-280.2054930899501,-1.0606479182823556,3.748,16.008537886872997
334,10,407,599720,0,0,0,0.902843171549,0,,0.0,599720,381.5,-231.7184641536837,-0.8769167238511205,3.86,15.544041450777202
335,10,409,602314,1,0,0,0.701310042172,0,,0.0,602314,323.5,-179.67626469918983,-0.6797139734171608,2.594,23.13030069390902
336,10,410,603522,0,2,1,0.604117291696,0,,0.0,603522,291.0,-112.23132755779848,-0.4241458528046217,1.208,49.66887417218543
337,10,416,611884,1,0,0,0.923515158669,0,,0.0,611884,-25.5,-27.530958464981726,-0.10319197454894971,8.362,7.175316909830184
338,10,417,613136,0,0,0,0.784680794288,0,,0.0,613136,-311.0,54.97514545433371,0.20944720655841514,1.252,47.92332268370607
339,10,418,614448,0,0,0,0.930594934365,0,,0.0,614448,-177.5,84.5001190488305,0.3846845927883677,1.312,45.731707317073166
340,10,420,617142,0,1,1,0.638841919412,0,,0.0,617142,-238.0,84.5001190488305,0.32132576012369946,2.694,22.271714922048996
341,10,421,618248,1,0,0,0.81939800952,0,,0.0,618248,-176.0,5.016529213903831,0.02013974773161991,1.106,54.24954792043399
342,10,423,621492,0,2,1,0.534634395,0,,0.0,621492,-281.5,-111.02860491214773,-0.41958839335406695,3.244,18.49568434032059
343,10,424,622698,1,0,0,0.812418587426,0,,0.0,622698,-90.0,-227.85691438698714,-0.8622842094126013,1.206,49.75124378109453
344,10,426,625412,0,0,0,0.715173664477,0,,0.0,625412,-98.5,-314.9280747050439,-1.192221692420237,2.714,22.107590272660282
345,10,429,630044,0,0,0,0.708218760592,0,,0.0,630044,-248.5,-350.27239740973107,-1.3443731944124673,4.632,12.95336787564767
346,10,433,635152,0,0,0,0.569403212514,0,,0.0,635152,-371.5,-350.27239740973107,-1.326151421037575,5.108,11.746280344557558
347,10,435,638152,0,2,1,0.965223484909,0,,0.0,638152,-180.5,-320.38109647330725,-1.2128847485967553,3.0,20.0
348,10,438,641934,0,0,0,0.624926694829,0,,0.0,641934,19.0,-288.18453534601537,-1.0908827872006213,3.782,15.864621893178212
349,10,439,643030,0,1,1,0.604101896541,0,,0.0,643030,0.0,-262.16022347175135,-0.9922692402416087,1.096,54.74452554744525
350,10,440,644286,1,0,0,0.791568130546,0,,0.0,644286,215.0,-234.77199827474294,-0.8884874363407678,1.256,47.77070063694268
351,10,444,650108,1,0,1,0.701294361923,0,,0.0,650108,43.0,-194.06673547414704,-0.7342435752903965,5.822,10.305736860185503
352,10,446,652708,1,2,1,0.624906167955,0,,0.0,652708,-382.0,-137.87908324431282,-0.5213325208712059,2.6,23.076923076923077
353,10,447,654008,0,2,1,0.548578129132,0,,0.0,654008,-212.5,-82.79576752086628,-0.3126061127342059,1.3,46.15384615384615
354,10,448,655610,1,1,1,0.638798014712,0,,0.0,655610,-412.0,-76.96679583482926,-0.21232133732680059,1.602,37.45318352059925
355,10,449,656714,0,1,1,0.611023444253,0,,0.0,656714,-376.0,-76.96679583482926,-0.2905184749952725,1.104,54.347826086956516
356,10,452,660614,1,0,0,0.805441446097,0,,0.0,660614,-414.0,-143.28276338965566,-0.5418086075527223,3.9,15.384615384615385
357,10,456,666372,1,0,0,0.65964904178,0,,0.0,666372,-152.5,-236.14165676516376,-0.893677463363019,5.758,10.420284821118443
358,10,458,668970,1,2,2,0.56940232892,0,,1.0,668970,-56.0,-324.9334952977998,-1.2301350873347876,2.598,23.094688221709006
359,10,461,673320,0,1,1,0.52077134289,0,,0.0,673320,-151.5,-369.08447460968017,-1.4304211393878121,4.35,13.793103448275863
360,10,463,675622,1,0,0,0.812443390732,0,,0.0,675622,1512.0,-369.08447460968017,-1.3974357519092906,2.302,26.064291920069504
361,10,469,683904,1,0,0,0.694393626178,0,,0.0,683904,-38.5,-277.720579232298,-1.051231870297125,8.282,7.244626901714562
362,10,473,689328,0,0,0,0.673567117319,0,,0.0,689328,343.0,-102.04888894376337,-0.38556168607338087,5.424,11.061946902654867
363,10,475,692262,1,2,1,0.729113692367,0,,0.0,692262,-138.0,113.97055321797595,0.4329976482367333,2.934,20.449897750511248
364,10,485,706362,1,1,1,0.51380104385,0,,0.0,706362,275.0,296.08580628216,1.1230843312878003,14.1,4.25531914893617
365,10,487,709056,0,1,1,0.520776189511,0,,0.0,709056,314.5,389.2856387187341,1.477348883974644,2.694,22.271714922048996
366,10,490,713452,1,0,0,0.784704742306,0,,0.0,713452,331.5,389.2856387187341,1.4762451025297532,4.396,13.64877161055505
367,10,491,714654,0,0,2,0.56940232892,0,,1.0,714654,-142.5,328.2706672440005,1.2450419574169447,1.202,49.91680532445923
368,10,492,715898,1,0,0,0.784875514491,0,,0.0,715898,2265.5,254.25353092454304,0.9645698979259627,1.244,48.231511254019296
369,10,494,718602,1,2,1,0.638830230495,0,,0.0,718602,1870.5,254.25353092454304,0.8819729507542134,2.704,22.189349112426033
370,10,496,721008,1,2,1,0.840227084242,0,,0.0,721008,1206.5,335.8617602567501,1.27380677590282,2.406,24.937655860349125
371,10,497,722530,0,1,1,0.576344716908,0,,0.0,722530,660.0,581.1090430105706,2.203118742008285,1.522,39.42181340341656
372,10,498,723828,1,1,1,0.631843681014,0,,0.0,723828,1050.5,889.7294571612878,3.3725695943652525,1.298,46.22496147919877
373,10,500,726122,1,0,0,0.833286435129,0,,0.0,726122,285.0,1139.124288472213,4.317597805971345,2.294,26.155187445510027
374,10,501,727248,0,2,1,0.736238798243,0,,0.0,727248,363.5,1154.4878308789816,4.688562085830978,1.126,53.28596802841919
375,10,504,731156,0,2,1,0.541613531997,0,,0.0,731156,342.0,1154.4878308789816,4.3758146540442775,3.908,15.353121801432959
376,10,505,732462,0,0,0,0.736015283397,0,,0.0,732462,169.5,924.9187515761174,3.505911876535757,1.306,45.94180704441041
377,10,506,733650,0,1,1,0.520787878424,0,,0.0,733650,330.0,622.5458707112307,2.3601347113078424,1.188,50.505050505050505
378,10,511,740250,0,0,1,0.541619519005,0,,0.0,740250,49.0,328.39030244335885,1.2454952893400664,6.6,9.090909090909092
379,11,4,20414,1,0,0,0.67364238252,0,,0.0,20414,-150.0,99.33385423860452,0.3775350174051931,-719.836,-0.08335231913935952
380,11,8,25610,0,1,1,0.513852646127,0,,0.0,25610,924.0,-43.008539487583064,-0.161840947492346,5.196,11.547344110854503
381,11,9,26918,0,2,0,0.444342665363,0,,0.0,26918,733.0,-57.546009764642584,-0.3578488579448006,1.308,45.87155963302752
382,11,17,37812,0,0,0,0.722233768589,0,,0.0,37812,-270.5,-57.546009764642584,-0.21692757244360034,10.894,5.507618872774004
383,11,18,39102,1,0,0,0.687465806364,0,,0.0,39102,-301.5,37.95619676812215,0.14495755151702855,1.29,46.51162790697674
384,11,19,40212,0,1,1,0.499959944089,0,,0.0,40212,-203.0,123.28045175709454,0.4682755115365089,1.11,54.05405405405405
385,11,23,45184,0,0,0,0.472162851092,0,,0.0,45184,127.0,123.28045175709454,0.5157602387057706,4.972,12.067578439259854
386,11,25,47680,0,0,0,0.784556492665,0,,0.0,47680,-178.0,63.77123740739425,0.24277811002513583,2.496,24.03846153846154
387,11,27,50078,1,0,0,0.645736383056,0,,0.0,50078,-189.5,-58.54718103892207,-0.22072129621032976,2.398,25.0208507089241
388,11,29,52584,0,0,0,0.506954761335,0,,0.0,52584,-22.0,-185.4551582370951,-0.7016118507568079,2.506,23.94253790901836
389,11,31,54878,1,0,0,0.729280758307,0,,0.0,54878,138.5,-281.63803247142687,-1.0660762189516846,2.294,26.155187445510027
390,11,32,56182,0,2,1,0.604099045588,0,,0.0,56182,156.0,-307.50095159167057,-1.2298098660175927,1.304,46.012269938650306
391,11,36,61864,1,0,0,0.749951890139,0,,0.0,61864,113.5,-307.50095159167057,-1.1640782026922603,5.682,10.559662090813093
392,11,37,63052,1,0,0,0.52769488627,0,,0.0,63052,-56.0,-241.07475287740098,-0.9123703728035375,1.188,50.505050505050505
393,11,39,66102,0,0,0,0.458257889946,0,,0.0,66102,100.0,-153.75369162989438,-0.5814859438339696,3.05,19.672131147540984
394,11,44,72500,0,1,1,0.590201211824,0,,0.0,72500,-194.0,-78.05325550217208,-0.29463538083094754,6.398,9.377930603313535
395,11,45,73904,1,0,0,0.826329820673,0,,0.0,73904,-52.5,-38.71062079970661,-0.14200737948829878,1.404,42.73504273504274
396,11,46,75408,0,0,0,0.756852055696,0,,0.0,75408,505.0,-38.71062079970661,-0.14555490663944418,1.504,39.8936170212766
397,11,49,79342,1,1,1,0.548739493162,0,,0.0,79342,88.5,-62.89690627601142,-0.2372036468676281,3.934,15.251652262328419
398,11,51,82040,1,0,0,0.777791747456,0,,0.0,82040,374.5,-66.41688907828261,-0.2986354725617533,2.698,22.23869532987398
399,11,52,83436,0,0,0,0.451302415873,0,,0.0,83436,102.0,-66.41688907828261,-0.25054186656941235,1.396,42.97994269340975
400,11,58,91790,1,1,1,0.597044643382,0,,0.0,91790,-67.5,-27.128805195873337,-0.10166810100794904,8.354,7.182188173330142
401,11,60,94590,0,2,1,0.479087819953,0,,0.0,94590,-16.5,16.798540872604658,0.06478515336579999,2.8,21.42857142857143
402,11,61,95880,0,0,0,0.59695882965,0,,0.0,95880,375.0,37.19199344284933,0.15470478110018077,1.29,46.51162790697674
403,11,63,99030,1,0,0,0.597170940673,0,,0.0,99030,127.5,37.19199344284933,0.14206176695730113,3.15,19.047619047619047
404,11,70,108380,0,0,0,0.423592847183,0,,0.0,108380,83.5,19.639369134218324,0.07554986263199077,9.35,6.4171122994652405
405,11,72,110974,0,0,0,0.499914043718,0,,0.0,110974,-202.0,1.1044507840924056,0.005315765763933056,2.594,23.13030069390902
406,11,74,113776,0,1,1,0.479109772303,0,,0.0,113776,160.5,-17.784666373518903,-0.06626049150027825,2.802,21.41327623126338
407,11,75,115074,0,2,1,0.506900308104,0,,0.0,115074,35.5,-41.332139699104374,-0.15548859012505262,1.298,46.22496147919877
408,11,76,116486,0,1,1,0.534692554476,0,,0.0,116486,149.0,-66.82844360794583,-0.2521013641704718,1.412,42.492917847025495
409,11,78,119226,0,0,0,0.597162387814,0,,0.0,119226,142.5,-85.05723098048284,-0.321175443371975,2.74,21.8978102189781
410,11,80,121928,1,0,0,0.965214646953,0,,0.0,121928,52.5,-85.05723098048284,-0.3338432673478004,2.702,22.20577350111029
411,11,83,125606,0,1,1,0.548531373472,0,,0.0,125606,125.0,-76.4870485453388,-0.2887005755599598,3.678,16.31321370309951
412,11,84,127108,0,2,1,0.451360005154,0,,0.0,127108,72.0,-55.910547048403245,-0.21073033732949636,1.502,39.94673768308922
413,11,98,145358,1,2,1,0.49294488506,0,,0.0,145358,59.5,-35.53480619172604,-0.1335208384769381,18.25,3.287671232876712
414,11,102,151004,0,0,0,0.513853501416,0,,0.0,151004,-80.0,-24.517091586917946,-0.08639547380043831,5.646,10.626992561105208
415,11,103,151998,1,1,1,0.527619621069,0,,0.0,151998,1.0,-24.517091586917946,-0.09177157256698337,0.994,60.36217303822938
416,11,104,153406,0,0,0,0.562471686459,0,,0.0,153406,161.5,-41.11225784876054,-0.154655395023523,1.408,42.61363636363637
417,11,106,156098,0,0,0,0.770751600026,0,,0.0,156098,541.5,-63.400659399427575,-0.2391125112607295,2.692,22.288261515601782
418,11,108,158508,1,2,1,0.548531088378,0,,0.0,158508,-13.0,-63.400659399427575,-0.2703174672695697,2.41,24.896265560165972
419,11,110,161002,1,0,0,0.444379442677,0,,0.0,161002,4.0,-52.90295054513788,-0.19933369558767092,2.494,24.057738572574177
420,11,113,164974,0,2,1,0.472048527809,0,,0.0,164974,-77.5,-17.53781585758997,-0.06532510442599071,3.972,15.105740181268882
421,11,124,181228,1,2,1,0.534655206968,0,,0.0,181228,249.5,10.224869809622538,0.03987563709522533,16.254,3.691399040236249
422,11,125,182536,1,2,1,0.55548741774,0,,0.0,182536,-35.0,10.224869809622538,0.06019616980434661,1.308,45.87155963302752
423,11,126,183734,1,2,1,0.513809311615,0,,0.0,183734,18.5,0.48393099061473144,0.0029644391241066617,1.198,50.08347245409015
424,11,128,186226,1,2,1,0.416628535146,0,,0.0,186226,110.5,-25.79387082205588,-0.09660965357634445,2.492,24.077046548956663
425,11,132,194752,0,0,0,0.409637139044,0,,0.0,194752,-14.5,-53.7081793736221,-0.2023849374907856,8.526,7.037297677691766
426,11,135,198998,1,0,0,0.840245615447,0,,0.0,198998,174.0,-75.07541458599482,-0.28335149150304884,4.246,14.130946773433818
427,11,136,200600,0,0,0,0.49996479071,0,,0.0,200600,200.0,-76.53992372170285,-0.3162827362842965,1.602,37.45318352059925
428,11,141,208158,0,0,0,0.569333934316,0,,0.0,208158,-33.0,-76.53992372170285,-0.28890093469769745,7.558,7.93860809738026
429,11,148,216996,0,1,1,0.472132345876,0,,0.0,216996,675.0,-53.90086413338372,-0.20311507505203383,8.838,6.788866259334692
430,11,150,219502,0,0,0,0.479104925682,0,,0.0,219502,218.0,-16.172164458207305,-0.06015026141560383,2.506,23.94253790901836
431,11,153,223494,0,0,0,0.479059025311,0,,0.0,223494,57.5,36.40705977905344,0.13908742922693476,3.992,15.030060120240481
432,11,156,228032,1,0,0,0.527686903599,0,,0.0,228032,38.5,92.39764002598268,0.3512517216439484,4.538,13.221683561040106
433,11,157,229336,1,2,1,0.645847855383,0,,0.0,229336,-13.0,125.37978157670328,0.487859324152952,1.304,46.012269938650306
434,11,159,231688,1,2,1,0.555613715031,0,,0.0,231688,-109.5,125.37978157670328,0.47623047152733083,2.352,25.510204081632654
435,11,161,234280,0,1,1,0.527728527537,0,,0.0,234280,-48.5,79.66833672115345,0.3030167575353426,2.592,23.14814814814815
436,11,165,239378,1,0,0,0.541740114386,0,,0.0,239378,-105.0,3.1021608392777402,0.012885659457542262,5.098,11.769321302471559
437,11,167,242078,0,0,0,0.763829197025,0,,0.0,242078,-20.5,-83.40286420428892,-0.31490657537808325,2.7,22.22222222222222
438,11,168,243286,1,0,0,0.66659168656,0,,0.0,243286,581.0,-155.11702035118304,-0.5866519855539939,1.208,49.66887417218543
439,11,170,245976,0,1,1,0.402696775029,0,,0.0,245976,-247.0,-172.80447571785282,-0.7105200683596211,2.69,22.304832713754646
440,11,173,249774,1,2,1,0.465241873568,0,,0.0,249774,-161.0,-172.80447571785282,-0.6536748032489902,3.798,15.797788309636651
441,11,174,250882,0,0,0,0.513797622702,0,,0.0,250882,-266.5,-131.30241662654257,-0.49641165358838557,1.108,54.15162454873646
442,11,176,253378,0,1,1,0.506800809788,0,,0.0,253378,-153.0,-103.72303998826521,-0.3791999242767267,2.496,24.03846153846154
443,11,177,254678,1,0,0,0.742980735813,0,,0.0,254678,-40.5,-103.72303998826521,-0.3919055223077878,1.3,46.15384615384615
444,11,180,258374,0,0,0,0.388773852868,0,,0.0,258374,6.5,-138.20112873786266,-0.5225528431819187,3.696,16.233766233766232
445,11,183,261874,1,2,1,0.465317708964,0,,0.0,261874,99.0,-180.8968570673654,-0.6843391463477052,3.5,17.142857142857142
446,11,185,264738,1,2,1,0.527735084732,0,,0.0,264738,-162.5,-205.89804727024253,-0.782432531110371,2.864,20.949720670391063
447,11,189,269934,1,0,0,0.694398472802,0,,0.0,269934,-226.5,-205.89804727024253,-0.7790757932190782,5.196,11.547344110854503
448,11,190,271434,1,1,1,0.597174076724,0,,0.0,271434,70.5,-187.39750580006978,-0.7089719601628723,1.5,40.0
449,11,191,272824,0,1,1,0.479106066061,0,,0.0,272824,176.5,-164.9449719732258,-0.623892899875715,1.39,43.16546762589928
450,11,194,276832,0,1,1,0.506728110442,0,,0.0,276832,56.0,-141.27426147991073,-0.5341978204413916,4.008,14.970059880239521
451,11,196,279528,0,0,0,0.492986794092,0,,0.0,279528,283.5,-110.54915913130363,-0.4177716364210882,2.696,22.255192878338278
452,11,197,280826,1,0,0,0.631860786743,0,,0.0,280826,-7.5,-69.23647107612351,-0.26122606767690976,1.298,46.22496147919877
453,11,198,281936,0,2,1,0.465240448088,0,,0.0,281936,278.5,-21.072653341358347,-0.07871961275659488,1.11,54.05405405405405
454,11,199,283034,0,1,1,0.479094662242,0,,0.0,283034,-10.0,24.95602869197204,0.09569620346500679,1.098,54.64480874316939
455,11,200,284332,0,2,1,0.416615990947,0,,0.0,284332,-64.5,58.329969103363524,0.22215959107990454,1.298,46.22496147919877
456,11,202,287122,1,2,1,0.43740914364,0,,0.0,287122,72.0,58.329969103363524,0.26412449033520463,2.79,21.50537634408602
457,11,206,292784,0,2,1,0.423587715468,0,,0.0,292784,118.0,55.06034568446029,0.2097700545528251,5.662,10.596962204168138
458,11,207,294080,0,0,0,0.479071284415,0,,0.0,294080,109.5,24.28973857548984,0.09317144000507374,1.296,46.2962962962963
459,11,208,295174,1,0,1,0.472181667392,0,,0.0,295174,162.5,-6.252970714961304,-0.022563604649379725,1.094,54.84460694698354
460,11,211,298950,1,0,0,0.59715754119,0,,0.0,298950,236.5,-16.28304403071053,-0.08192274306884863,3.776,15.889830508474578
461,11,216,305956,0,1,1,0.479120605931,0,,0.0,305956,-13.5,-16.28304403071053,-0.0605704157690665,7.006,8.564087924636025
462,11,220,311432,1,0,0,0.444365758096,0,,0.0,311432,95.5,5.769388871474388,0.022992547896099946,5.476,10.95690284879474
463,11,222,314320,1,1,1,0.555493119649,0,,0.0,314320,43.5,30.57634845565415,0.11699319950541431,2.888,20.775623268698062
464,11,223,315618,0,0,0,0.430481894015,0,,0.0,315618,-28.5,40.38339304837055,0.1699869763299093,1.298,46.22496147919877
465,11,225,318120,0,0,0,0.430475621917,0,,0.0,318120,-57.5,40.38339304837055,0.15415489112460215,2.502,23.980815347721826
466,11,226,319222,0,0,0,0.45134375471,0,,0.0,319222,-155.0,16.681030649254307,0.06433987358339838,1.102,54.44646098003629
467,11,227,320620,1,0,0,0.590198645968,0,,0.0,320620,8.0,-23.11617377682105,-0.08646309505875285,1.398,42.91845493562232
468,11,228,321724,1,0,0,0.409629726564,0,,0.0,321724,-156.5,-70.81248371963939,-0.2671980294940076,1.104,54.347826086956516
469,11,229,323022,1,0,0,0.444427623814,0,,0.0,323022,-84.5,-115.89338368769822,-0.4380224289030481,1.298,46.22496147919877
470,11,231,325624,1,0,0,0.381906473289,0,,0.0,325624,-70.0,-150.2448109026838,-0.5681897930639451,2.602,23.059185242121448
471,11,233,328122,1,2,1,0.562452299968,0,,0.0,328122,-72.5,-169.95189983660381,-0.6428655788983598,2.498,24.019215372297836
472,11,235,330518,0,0,0,0.437423683506,0,,0.0,330518,128.0,-169.95189983660381,-0.6568423806370163,2.396,25.041736227045075
473,11,241,338272,1,2,1,0.527703439133,0,,0.0,338272,38.5,-160.44738323762766,-0.6068502522113653,7.754,7.7379417075058035
474,11,244,342602,0,0,0,0.47215030689,0,,0.0,342602,84.5,-130.58754361603727,-0.4937027956738403,4.33,13.856812933025404
475,11,246,344696,0,1,1,0.52770372423,0,,0.0,344696,-139.0,-89.333280142045,-0.33737861434648825,2.094,28.65329512893983
476,11,247,345800,0,2,1,0.486077505484,0,,0.0,345800,7.0,-48.89643316976306,-0.18415185749536986,1.104,54.347826086956516
477,11,252,352546,1,1,1,0.493009316637,0,,0.0,352546,132.0,-21.98509774334483,-0.08217712507498069,6.746,8.894159501927067
478,11,255,355946,1,0,0,0.645757765215,0,,0.0,355946,397.0,-10.136189589646515,-0.037278229524037365,3.4,17.647058823529413
479,11,256,357146,1,1,1,0.416623973622,0,,0.0,357146,229.5,0.01769047142806457,0.0011977206973083358,1.2,50.0
480,11,259,366294,0,0,0,0.458296377834,0,,0.0,366294,142.0,24.478095811991775,0.09388517934529515,9.148,6.558810668998689
481,11,260,367400,0,0,0,0.61107333596,0,,0.0,367400,195.5,65.89494813381103,0.2508254562319712,1.106,54.24954792043399
482,11,270,380912,1,0,0,0.520793865431,0,,0.0,380912,159.0,112.31466927771189,0.4267230312750688,13.512,4.440497335701599
483,11,271,382210,0,0,0,0.451352022483,0,,0.0,382210,78.0,148.2012730806582,0.5627076177809283,1.298,46.22496147919877
484,11,272,383408,1,0,0,0.604093058584,0,,0.0,383408,209.0,155.73057255699044,0.6202698998519907,1.198,50.08347245409015
485,11,277,390448,0,0,0,0.541640616069,0,,0.0,390448,-90.5,155.73057255699044,0.591238282916863,7.04,8.522727272727273
486,11,284,400198,1,2,1,0.555522769577,0,,0.0,400198,77.5,128.64150961548359,0.4885900902051978,9.75,6.153846153846154
487,11,285,401308,0,0,1,0.520793010142,0,,0.0,401308,145.0,88.54419747972162,0.3366499277780609,1.11,54.05405405405405
488,11,289,406646,0,0,0,0.597189471882,0,,0.0,406646,40.5,45.76918867416476,0.17456320825598148,5.338,11.240164855751217
489,11,292,410458,0,0,0,0.472179671724,0,,0.0,410458,181.0,12.4400512204851,0.04826959183793857,3.812,15.739769150052467
490,11,293,411646,1,1,1,0.506909146065,0,,0.0,411646,155.0,1.1243069665272214,-0.010514364554737575,1.188,50.505050505050505
491,11,297,417360,0,1,1,0.499965075804,0,,0.0,417360,61.5,1.1243069665272214,0.0053910065076047,5.714,10.500525026251312
492,11,298,418658,1,0,0,0.680506340948,0,,0.0,418658,142.5,19.89104698075191,0.07650354184001729,1.298,46.22496147919877
493,11,299,419950,0,1,1,0.513902822931,0,,0.0,419950,78.0,43.26888215848982,0.1650888330952969,1.292,46.43962848297213
494,11,302,423648,1,0,1,0.548505429786,0,,0.0,423648,22.0,61.45048803759052,0.23398412814907474,3.698,16.224986479177936
495,11,303,424858,1,1,1,0.493024711792,0,,0.0,424858,43.0,61.45048803759052,0.25769433154824173,1.21,49.586776859504134
496,11,308,431044,1,0,0,0.479120035739,0,,0.0,431044,16.5,59.434965141728014,0.2263467365170348,6.186,9.699321047526674
497,11,309,432546,1,1,1,0.65964333987,0,,0.0,432546,-26.5,38.68374765600352,0.1477144495281576,1.502,39.94673768308922
498,11,313,437460,0,0,0,0.499959373898,0,,0.0,437460,17.0,10.66926481214815,0.041559576623065364,4.914,12.210012210012211
499,11,314,438844,1,2,1,0.597105653815,0,,0.0,438844,251.5,-17.21586881756446,-0.06410515518378741,1.384,43.35260115606937
500,11,315,440450,1,2,1,0.465216785167,0,,0.0,440450,-2.0,-35.21395853269903,-0.13230505510318294,1.606,37.359900373599004
501,11,316,441554,1,2,1,0.437453333434,0,,0.0,441554,-32.0,-35.21395853269903,-0.13742546378142834,1.104,54.347826086956516
502,11,318,444158,1,1,1,0.569368145771,0,,0.0,444158,-15.5,-25.185574648311352,-0.09430464572121398,2.604,23.04147465437788
503,11,319,445358,1,0,0,0.604097620107,0,,0.0,445358,135.5,-12.286176557902607,-0.04542514391238882,1.2,50.0
504,11,323,450646,0,2,1,0.534691129,0,,0.0,450646,20.0,-5.098173507268803,-0.018187748364720847,5.288,11.3464447806354
505,11,325,453348,1,0,0,0.548492885584,0,,0.0,453348,81.0,-3.364089067945136,-0.010567021694266182,2.702,22.20577350111029
506,11,332,462948,0,0,0,0.465206806828,0,,0.0,462948,-82.0,-3.364089067945136,-0.011616807387901136,9.6,6.25
507,11,339,472580,1,1,1,0.499905205757,0,,0.0,472580,-114.5,-6.378558857227847,-0.023039493972591547,9.632,6.229235880398671
508,11,340,473972,0,2,1,0.458291816307,0,,0.0,473972,254.0,-14.907213415714567,-0.05535700080481825,1.392,43.10344827586207
509,11,342,476278,1,1,1,0.548468652469,0,,0.0,476278,51.5,-26.484849389615448,-0.09922796862532338,2.306,26.019080659150042
510,11,343,477470,1,0,0,0.472178246247,0,,0.0,477470,-2.5,-27.754727853031095,-0.12120400236870933,1.192,50.33557046979866
511,11,344,478972,1,0,0,0.388822319099,0,,0.0,478972,-60.0,-27.754727853031095,-0.104039900640637,1.502,39.94673768308922
512,11,346,481370,0,2,1,0.402692213502,0,,0.0,481370,45.0,-18.290419790425908,-0.0681769355764485,2.398,25.0208507089241
513,11,347,482482,1,2,1,0.388851398835,0,,0.0,482482,-44.5,-13.786164352096668,-0.04542808554254005,1.112,53.956834532374096
514,11,349,484974,0,2,1,0.444401109933,0,,0.0,484974,26.0,-13.786164352096668,-0.051109025872279626,2.492,24.077046548956663
515,11,350,486274,0,1,0,0.423522143508,0,,0.0,486274,-132.5,-22.256321890450565,-0.08320487079583795,1.3,46.15384615384615
516,11,353,489884,1,2,1,0.493011597398,0,,0.0,489884,7.5,-35.70622225980247,-0.1341703828937302,3.61,16.62049861495845
517,11,359,498352,0,2,1,0.56245201487,0,,0.0,498352,52.5,-51.282071698511764,-0.19319172291884873,8.468,7.085498346717053
518,11,362,502248,1,0,0,0.534677729513,0,,0.0,502248,128.0,-63.02665351169867,-0.23798145096197829,3.896,15.400410677618071
519,11,363,503546,1,0,0,0.8332884308,0,,0.0,503546,115.0,-63.02665351169867,-0.2376952961831245,1.298,46.22496147919877
520,11,366,508218,0,1,1,0.548561878688,0,,0.0,508218,164.0,-45.65848332960804,-0.1718823412001543,4.672,12.842465753424658
521,11,372,516344,1,1,1,0.451308117779,0,,0.0,516344,-42.5,-12.920439487428181,-0.04782854721801032,8.126,7.383706620723604
522,11,373,517748,0,2,1,0.479077556512,0,,0.0,517748,69.5,24.932567251774163,0.09560730137046312,1.404,42.73504273504274
523,11,374,518946,0,0,0,0.506910286444,0,,0.0,518946,232.0,55.05358798851477,0.20974444771374026,1.198,50.08347245409015
524,11,377,522946,1,0,0,0.51384238269,0,,0.0,522946,266.0,72.7471424386339,0.2767903765770567,4.0,15.0
525,11,378,524346,0,0,0,0.416719765697,0,,0.0,524346,76.5,84.15881697602295,0.3200324691369241,1.4,42.85714285714286
526,11,379,525454,0,1,1,0.513759134818,0,,0.0,525454,-30.0,95.39715454761688,0.3626177384501768,1.108,54.15162454873646
527,11,383,531644,1,1,1,0.562462563401,0,,0.0,531644,-153.5,95.39715454761688,0.388043165376419,6.19,9.693053311793214
528,11,384,532850,0,0,0,0.513846374026,0,,0.0,532850,26.0,92.78184549002057,0.3527075858279032,1.206,49.75124378109453
529,11,387,543996,0,2,1,0.534708234725,0,,0.0,543996,-37.0,61.505502145579456,0.2341925923093487,11.146,5.383097075183922
530,11,389,546722,1,1,1,0.520786452948,0,,0.0,546722,66.0,15.479003654089023,0.0597850501511233,2.726,22.010271460014675
531,11,394,553582,1,2,1,0.444394552738,0,,0.0,553582,-150.0,-30.25615004356369,-0.11351850341185352,6.86,8.746355685131196
532,11,397,557298,1,2,1,0.506794822781,0,,0.0,557298,133.5,-63.350622351192676,-0.23892290660068535,3.716,16.146393972012916
533,11,401,562324,0,2,1,0.444390276305,0,,0.0,562324,-157.5,-78.93945942805638,-0.29799346049440545,5.026,11.937922801432551
534,11,402,563724,1,0,0,0.506914847971,0,,0.0,563724,8.0,-78.93945942805638,-0.2983591058507982,1.4,42.85714285714286
535,11,405,567122,0,2,1,0.527740786642,0,,0.0,567122,-50.0,-70.44351077211687,-0.26579988566361873,3.398,17.657445556209534
536,11,411,575176,0,0,0,0.423506748353,0,,0.0,575176,-132.0,-60.927943102387495,-0.22974268331474568,8.054,7.449714427613608
537,11,416,582022,1,1,1,0.583290782837,0,,0.0,582022,218.5,-55.11944416341911,-0.20773262265889475,6.846,8.76424189307625
538,11,420,587028,0,0,0,0.465234746182,0,,0.0,587028,339.0,-49.67180339648189,-0.18708995663253755,5.006,11.985617259288853
539,11,423,590320,1,0,0,0.458256179372,0,,0.0,590320,298.0,-31.564983516761767,-0.11847804707987974,3.292,18.226002430133658
540,11,424,591524,0,2,0,0.430580537046,0,,0.0,591524,101.5,11.064751007387825,0.04305818671790046,1.204,49.83388704318937
541,11,425,592922,0,2,1,0.458251902943,0,,0.0,592922,41.5,73.6612200047285,0.28025407742047426,1.398,42.91845493562232
542,11,426,594124,1,2,1,0.458292386498,0,,0.0,594124,26.5,134.39371967170754,0.5103868562153111,1.202,49.91680532445923
543,11,429,598178,0,0,0,0.451344039808,0,,0.0,598178,161.0,169.5937439873751,0.6437697970431991,4.054,14.800197335964478
544,11,430,599474,0,0,0,0.458293811975,0,,0.0,599474,124.0,169.5937439873751,0.6459166060085877,1.296,46.2962962962963
545,11,433,602946,1,1,0,0.50686780722,0,,0.0,602946,80.0,144.5647221078021,0.5489276880036024,3.472,17.28110599078341
546,11,434,604448,1,0,0,0.493052936243,0,,0.0,604448,8.0,108.56626722726396,0.41251926583415993,1.502,39.94673768308922
547,11,438,609518,0,1,1,0.527727387154,0,,0.0,609518,30.5,73.9621572005469,0.2813944143652101,5.07,11.834319526627219
548,11,440,612226,0,2,1,0.451300705296,0,,0.0,612226,-69.0,45.106463986908906,0.17205195522522482,2.708,22.156573116691284
549,11,442,614522,0,0,0,0.520737986717,0,,0.0,614522,106.5,21.677703937801102,0.08327369509459204,2.296,26.132404181184672
550,11,443,615730,1,0,0,0.64581991603,0,,0.0,615730,193.0,4.18531772575993,0.016990050113677907,1.208,49.66887417218543
551,11,444,617120,1,2,1,0.486064961282,0,,0.0,617120,133.0,4.18531772575993,-0.008129624989884997,1.39,43.16546762589928
552,11,445,618218,0,1,1,0.513757709337,0,,0.0,618218,29.0,6.731562130285847,0.026638497049297036,1.098,54.64480874316939
553,11,446,619430,1,2,1,0.416621407763,0,,0.0,619430,69.5,28.804116672999438,0.11027770735463416,1.212,49.504950495049506
554,11,447,620634,1,1,1,0.458289535545,0,,0.0,620634,-70.0,52.61291510192408,0.20049604139751348,1.204,49.83388704318937
555,11,453,629082,0,2,1,0.569367005392,0,,0.0,629082,131.5,65.05887438091456,0.25141723067792865,8.448,7.102272727272727
556,11,463,643220,1,1,1,0.465241588474,0,,0.0,643220,267.0,65.05887438091456,0.24765733410483098,14.138,4.2438817371622575
557,11,464,644218,1,0,0,0.61107019991,0,,0.0,644218,22.0,57.19097633671787,0.217843622334131,0.998,60.120240480961925
558,11,465,645428,0,2,1,0.42357117993,0,,0.0,645428,94.0,55.70006682778622,0.20295292743416002,1.21,49.586776859504134
559,11,469,651400,0,0,0,0.402757785458,0,,0.0,651400,-92.0,55.70006682778622,0.21219414058871494,5.972,10.046885465505692
560,11,472,655804,0,1,1,0.430511543942,0,,0.0,655804,365.0,59.15721364819418,0.22529425681717302,4.404,13.623978201634877
561,11,474,658406,0,0,0,0.569498434397,0,,0.0,658406,403.0,62.674161494199716,0.23862097620326528,2.602,23.059185242121448
562,11,476,660998,1,0,0,0.458303220126,0,,0.0,660998,166.5,75.5580388294716,0.287441665440103,2.592,23.14814814814815
563,11,477,662304,0,0,0,0.423473962375,0,,0.0,662304,415.5,106.60574117114977,0.40509027292810057,1.306,45.94180704441041
564,11,480,665496,0,1,1,0.416632241391,0,,0.0,665496,215.0,153.26535985093608,0.581896888219205,3.192,18.796992481203006
565,11,481,666696,1,2,1,0.423582013555,0,,0.0,666696,787.5,206.35905590313317,0.783084059436924,1.2,50.0
566,11,489,677566,1,0,0,0.416505659003,0,,0.0,677566,543.0,261.71390698489097,0.9928393925628818,10.87,5.519779208831647
567,11,493,682376,0,0,1,0.409659091394,0,,0.0,682376,127.0,320.04409729371235,1.2138691354025188,4.81,12.474012474012476
568,11,495,684868,0,1,1,0.513807601041,0,,0.0,684868,309.0,373.03929888601675,1.4146830829940855,2.492,24.077046548956663
569,11,500,691300,0,0,0,0.499956522941,0,,0.0,691300,418.5,394.8767540535936,1.524212919703921,6.432,9.328358208955223
570,11,506,699450,1,0,0,0.527708570855,0,,0.0,699450,40.5,394.8767540535936,1.4974314346522433,8.15,7.361963190184048
571,11,509,703780,0,0,0,0.562376179474,0,,0.0,703780,327.5,354.56258701996876,1.3446695471106438,4.33,13.856812933025404
572,11,510,704872,1,0,0,0.569331653551,0,,0.0,704872,97.5,292.2123684793752,1.108406769686816,1.092,54.94505494505494
573,11,511,706372,1,1,1,0.513793631366,0,,0.0,706372,69.0,221.70590151281135,0.8412376385791781,1.5,40.0
574,12,4,36586,0,0,0,0.423610453799,0,,0.0,36586,-104.5,153.36258474653408,0.582265301103817,-669.786,-0.08958085119724808
575,12,18,54134,1,0,0,0.743024756895,0,,0.0,54134,25.0,89.86487584408432,0.3416543551201197,17.548,3.4191930704353775
576,12,22,59640,1,0,0,0.499966073163,0,,0.0,59640,-87.0,30.233808109419996,0.11569521634713058,5.506,10.897203051216854
577,12,24,62536,1,0,0,0.763816204366,0,,0.0,62536,199.5,-23.49420871230648,-0.08789557734849616,2.896,20.718232044198896
578,12,27,66434,1,2,1,0.722132669318,0,,0.0,66434,57.0,-63.735373191776624,-0.240380837372064,3.898,15.392508978963571
579,12,30,70464,1,0,0,0.569403469315,0,,0.0,70464,66.0,-75.75685349259675,-0.30840192723029236,4.03,14.888337468982629
580,12,34,75914,0,0,0,0.493110571828,0,,0.0,75914,-1.5,-75.75685349259675,-0.285933658053333,5.45,11.009174311926605
581,12,37,80190,1,0,0,0.6805360896,0,,0.0,80190,-38.5,-54.95480000769861,-0.20710873895122495,4.276,14.031805425631433
582,12,38,81382,1,0,0,0.576337087903,0,,0.0,81382,-13.0,-33.70633436322093,-0.12659223673735343,1.192,50.33557046979866
583,12,41,85688,0,1,1,0.576323688227,0,,0.0,85688,157.5,-23.50642960480231,-0.08544656337767895,4.306,13.934045517882025
584,12,42,86782,1,2,1,0.923595343527,0,,0.0,86782,-52.0,-23.50642960480231,-0.08794188579891134,1.094,54.84460694698354
585,12,47,94238,0,1,1,0.701341792043,0,,0.0,94238,159.5,-29.44161517081515,-0.11043199825038658,7.456,8.047210300429184
586,12,54,104332,0,0,2,0.56940232892,0,,1.0,104332,118.0,-29.98792645975361,-0.12474458364417695,10.094,5.944125222904696
587,12,55,105732,1,2,1,0.611069328203,0,,0.0,105732,-84.0,-29.98792645975361,-0.11250212768190665,1.4,42.85714285714286
588,12,61,113534,1,1,1,0.576325113725,0,,0.0,113534,1429.0,-14.574000145660737,-0.05409436060082058,7.802,7.690335811330429
589,12,62,114734,0,0,0,0.513817914965,0,,0.0,114734,171.5,28.559835310873716,0.1093520555375339,1.2,50.0
590,12,64,116944,1,1,1,0.604083821516,0,,0.0,116944,195.5,114.25953281040472,0.43409267440863963,2.21,27.149321266968325
591,12,66,119888,0,2,1,0.659684201044,0,,0.0,119888,95.5,225.09401217283397,0.8540761570878993,2.944,20.380434782608695
592,12,67,120994,0,1,2,0.56940232892,0,,1.0,120994,136.0,314.1453340134985,1.1915170373895558,1.106,54.24954792043399
593,12,73,129132,1,1,1,0.576347066384,0,,0.0,129132,60.5,314.1453340134985,1.2992384574953115,8.138,7.372818874416319
594,12,75,131644,0,2,1,0.638867094622,0,,0.0,131644,36.5,302.1046773605314,1.1458915520356499,2.512,23.88535031847134
595,12,76,133032,0,0,0,0.617963888162,0,,0.0,133032,1148.5,216.25732320468705,0.8205914199416193,1.388,43.22766570605187
596,12,77,134340,1,2,1,0.659654550702,0,,0.0,134340,208.5,134.1936076622034,0.5096285746845008,1.308,45.87155963302752
597,12,78,135442,1,0,0,0.652667903618,0,,0.0,135442,202.0,129.95830033099642,0.39216813744395074,1.102,54.44646098003629
598,12,79,136636,0,1,1,1.01387065836,0,,0.0,136636,8.5,129.95830033099642,0.4935797861359414,1.194,50.25125628140704
599,12,82,140892,1,2,1,0.638949203261,0,,0.0,140892,-26.0,178.03749002796204,0.6757655612619194,4.256,14.097744360902254
600,12,86,146236,0,2,1,0.485987647211,0,,0.0,146236,54.0,178.03749002796204,0.766837380108535,5.344,11.22754491017964
601,12,87,147538,1,0,0,0.680488192891,0,,0.0,147538,-68.5,177.74570443887131,0.6746599023676216,1.302,46.08294930875576
602,12,88,149038,0,0,0,0.548520219822,0,,0.0,149038,237.0,109.84468621501905,0.41736356033429434,1.5,40.0
603,12,89,150030,0,0,0,0.687468852884,0,,0.0,150030,317.0,25.57290621283063,0.09803372849410491,0.992,60.483870967741936
604,12,91,152942,1,2,1,0.631865052168,0,,0.0,152942,146.0,-39.67251579624467,-0.14919980137745067,2.912,20.604395604395606
605,12,92,154438,0,0,0,0.576359895862,0,,0.0,154438,19.0,-45.48121221190861,-0.23593922492946917,1.496,40.106951871657756
606,12,95,158608,0,0,0,0.506868045712,0,,0.0,158608,158.0,-45.48121221190861,-0.17121061032887558,4.17,14.388489208633093
607,12,96,159906,1,2,1,0.645732004239,0,,0.0,159906,128.5,-9.020353570435358,-0.03305000830494514,1.298,46.22496147919877
608,12,102,167904,0,2,1,0.57634393029,0,,0.0,167904,209.5,26.37004844050843,0.10105432795824884,7.998,7.501875468867216
609,12,103,168886,0,2,1,0.507128911708,0,,0.0,168886,201.0,50.72010440622481,0.19332364132304888,0.982,61.09979633401222
610,12,106,172756,1,2,1,0.65968505634,0,,0.0,172756,194.0,63.89319087357722,0.24324022652306107,3.87,15.503875968992247
611,12,116,186556,1,0,2,0.56940232892,0,,1.0,186556,200.0,70.23507479736787,0.2672714351540106,13.8,4.3478260869565215
612,12,117,188006,1,1,1,0.687398433322,0,,0.0,188006,92.5,73.39682469178052,0.27925220810169615,1.45,41.37931034482759
613,12,119,190404,0,1,1,0.749965502968,0,,0.0,190404,162.5,73.39682469178052,0.2806833846856026,2.398,25.0208507089241
614,12,121,193106,1,2,1,0.65272463841,0,,0.0,193106,122.5,69.66136983117048,0.2650975032591706,2.702,22.20577350111029
615,12,126,200210,0,0,0,0.465297124945,0,,0.0,200210,-7.0,59.7232761172432,0.22743922910858272,7.104,8.445945945945946
616,12,127,201506,1,0,0,0.590245664491,0,,0.0,201506,102.0,43.20544846196789,0.16484846471049688,1.296,46.2962962962963
617,12,132,214808,1,0,2,0.56940232892,0,,1.0,214808,162.0,20.87884687536237,0.08024659763199798,13.302,4.510599909788002
618,12,134,217880,1,0,0,0.624961083922,0,,0.0,217880,74.5,-2.3632347248453476,-0.007824284563887224,3.072,19.53125
619,12,135,218980,1,2,1,0.555509432801,0,,0.0,218980,205.0,-19.210941207381453,-0.07166505401033078,1.1,54.54545454545454
620,12,136,220086,1,2,1,0.472150345482,0,,0.0,220086,129.5,-19.210941207381453,-0.09166956307641456,1.106,54.24954792043399
621,12,141,226982,0,0,0,0.548554146659,0,,0.0,226982,-32.5,-18.1772339477982,-0.06774804210710374,6.896,8.700696055684455
622,12,150,239960,1,0,0,0.652816155332,0,,0.0,239960,90.0,-6.9556552133225855,-0.0252262768119066,12.978,4.623208506703652
623,12,151,241358,0,0,0,0.499929865535,0,,0.0,241358,11.5,-5.785984788053817,-0.002028829955926247,1.398,42.91845493562232
624,12,153,244290,0,1,2,0.56940232892,0,,1.0,244290,77.0,-5.785984788053817,-0.020794061659932604,2.932,20.463847203274216
625,12,155,246938,1,0,0,0.722111286857,0,,0.0,246938,161.0,-20.075635000714318,-0.07494162564096525,2.648,22.65861027190332
626,12,157,249440,0,2,1,0.764034305448,0,,0.0,249440,202.5,-35.36117421237521,-0.132862897339742,2.502,23.980815347721826
627,12,158,250740,1,1,1,0.743012782717,0,,0.0,250740,129.5,-35.36117421237521,-0.15482621384538994,1.3,46.15384615384615
628,12,160,253228,0,0,0,0.847057545612,0,,0.0,253228,25.0,-32.40218378787877,-0.12165043790614938,2.488,24.115755627009648
629,12,174,271532,1,2,1,0.493086908573,0,,0.0,271532,1078.0,-9.582006000179327,-0.0351782696984759,18.304,3.2779720279720284
630,12,178,277356,1,0,0,0.930475078316,0,,0.0,277356,73.0,31.817465723101996,0.12169614713862893,5.824,10.302197802197803
631,12,181,281458,0,0,0,0.597198669842,0,,0.0,281458,89.0,95.88196887647166,0.3644548383441495,4.102,14.62701121404193
632,12,185,287006,0,0,0,0.631950296902,0,,0.0,287006,18.5,165.16088894179913,0.6269724438101364,5.548,10.814708002883922
633,12,188,291508,1,0,0,0.638875077402,0,,0.0,291508,74.5,194.5938188775039,0.7804577266927856,4.502,13.327410039982231
634,12,191,295502,0,2,1,0.555572724879,0,,0.0,295502,-104.5,194.5938188775039,0.7385022176761757,3.994,15.022533800701051
635,12,193,297908,0,0,0,0.527792634624,0,,0.0,297908,90.5,133.34930099497953,0.5064292556946902,2.406,24.937655860349125
636,12,195,300634,1,2,1,0.576347636583,0,,0.0,300634,99.0,42.925032002997014,0.1637858866958155,2.726,22.010271460014675
637,12,196,301980,0,2,1,0.617938799409,0,,0.0,301980,80.5,-46.33658116447197,-0.1744518474758337,1.346,44.576523031203564
638,12,200,307512,0,0,0,0.527689428625,0,,0.0,307512,161.0,-107.86404630979656,-0.40759697741018897,5.532,10.845986984815617
639,12,201,308936,1,0,0,0.645795866512,0,,0.0,308936,215.5,-109.74766834902519,-0.4857850002634961,1.424,42.13483146067416
640,12,205,314254,0,0,0,0.485973107137,0,,0.0,314254,80.0,-109.74766834902519,-0.41473455904216266,5.318,11.282437006393382
641,12,212,323580,1,1,1,0.638991683078,0,,0.0,323580,29.0,-65.50276443389865,-0.24707798733291678,9.326,6.433626420759167
642,12,213,324990,1,2,1,0.611047090446,0,,0.0,324990,147.0,-17.107069333509035,-0.06369288287926489,1.41,42.5531914893617
643,12,214,326488,0,1,1,0.555435021844,0,,0.0,326488,97.5,17.018957239534675,0.06562037390326532,1.498,40.053404539385845
644,12,220,334178,1,1,1,0.83329551014,0,,0.0,334178,119.5,24.825031090941252,0.11432649888299144,7.69,7.802340702210663
645,12,225,340762,1,1,1,0.652748586759,0,,0.0,340762,65.0,24.825031090941252,0.09519981615827677,6.584,9.113001215066829
646,12,226,342056,0,0,0,0.791633357549,0,,0.0,342056,25.5,9.096037065778294,0.035598167576269865,1.294,46.3678516228748
647,12,227,343570,0,2,1,0.527745023017,0,,0.0,343570,2.0,-11.504318618539857,-0.042462460979939304,1.514,39.63011889035667
648,12,230,347706,0,2,1,0.527746163418,0,,0.0,347706,83.0,-33.70528668885115,-0.12658826680008242,4.136,14.506769825918761
649,12,238,357606,0,0,0,0.618080493838,0,,0.0,357606,94.5,-54.322560535780056,-0.20471300310412124,9.9,6.0606060606060606
650,12,239,359106,1,0,0,0.576229035214,0,,0.0,359106,95.0,-68.6430141002779,-0.25897728977882517,1.5,40.0
651,12,243,364178,1,1,1,0.527693420016,0,,0.0,364178,46.5,-68.6430141002779,-0.2747873626797462,5.072,11.829652996845425
652,12,244,365380,0,1,1,0.68746657209,0,,0.0,365380,104.0,-67.0884822983548,-0.2530867250027467,1.202,49.91680532445923
653,12,245,366578,0,1,1,0.451363174503,0,,0.0,366578,-7.0,-55.782985244928554,-0.21024696924053768,1.198,50.08347245409015
654,12,246,367876,1,0,0,0.736073462143,0,,0.0,367876,89.5,-44.84046939003759,-0.16878265286131564,1.298,46.22496147919877
655,12,254,378628,0,0,0,0.645760229083,0,,0.0,378628,111.5,-38.57777399756011,-0.1450515121817877,10.752,5.580357142857142
656,12,255,380128,0,0,0,0.541607413499,0,,0.0,380128,60.5,-37.459441353069835,-0.13944727182009511,1.5,40.0
657,12,265,397118,1,0,0,0.694401616172,0,,0.0,397118,103.5,-37.200268975044075,-0.14081383053679097,16.99,3.5314891112419073
658,12,266,398422,1,0,0,0.493025897296,0,,0.0,398422,36.0,-37.200268975044075,-0.13983175240944587,1.304,46.012269938650306
659,12,270,403364,1,1,1,0.520800855757,0,,0.0,403364,160.0,-35.64447822288155,-0.13393641711151247,4.942,12.140833670578713
660,12,271,404766,1,0,0,0.617966739159,0,,0.0,404766,44.5,-32.728272985447134,-0.12288608296576131,1.402,42.796005706134096
661,12,272,406364,0,0,0,0.499952388393,0,,0.0,406364,65.0,-28.6898548728295,-0.10758336387321246,1.598,37.546933667083856
662,12,275,410056,0,0,0,0.47913442667,0,,0.0,410056,-34.0,-26.860537242087958,-0.0957166721009905,3.692,16.251354279523294
663,12,276,411366,1,2,1,0.611078736485,0,,0.0,411366,109.0,-26.860537242087958,-0.10065155714749928,1.31,45.80152671755725
664,12,278,414456,1,2,1,0.4930230463,0,,0.0,414456,-5.0,-34.24727021372265,-0.12864199709808816,3.09,19.417475728155342
665,12,279,415666,1,2,1,0.576366168047,0,,0.0,415666,176.5,-45.16956824867357,-0.1700297023858931,1.21,49.586776859504134
666,12,280,416862,0,0,0,0.520806272641,0,,0.0,416862,-18.5,-54.343440253840946,-0.204792122316473,1.196,50.16722408026756
667,12,283,421008,0,2,1,0.604140556308,0,,0.0,421008,-17.0,-58.27273850870787,-0.21968135511710946,4.146,14.471780028943561
668,12,287,426698,0,0,0,0.652743169874,0,,0.0,426698,-18.5,-58.99485722318834,-0.22241766907247762,5.69,10.544815465729348
669,12,289,428994,0,0,0,0.527960273103,0,,0.0,428994,-12.5,-61.93728258323241,-0.23356735874796308,2.296,26.132404181184672
670,12,290,429994,0,1,1,0.506892279165,0,,0.0,429994,117.5,-69.80778159438212,-0.2633909263249568,1.0,60.0
671,12,292,432382,1,1,1,0.493021335704,0,,0.0,432382,144.5,-78.87655704540903,-0.2977551054095526,2.388,25.12562814070352
672,12,293,433596,1,0,0,0.722180280929,0,,0.0,433596,11.5,-78.87655704540903,-0.307164907718258,1.214,49.423393739703464
673,12,297,438540,1,0,0,0.555431600653,0,,0.0,438540,-154.0,-73.91819874329833,-0.2789664703199022,4.944,12.135922330097088
674,12,298,439746,1,2,1,0.583321169088,0,,0.0,439746,-105.0,-64.3009605520302,-0.24143711705613888,1.206,49.75124378109453
675,12,299,441034,0,0,0,0.569414588197,0,,0.0,441034,-14.0,-64.3009605520302,-0.2425240093406165,1.288,46.58385093167702
676,12,305,449046,1,0,0,0.680519553833,0,,0.0,449046,45.0,-79.89922862984336,-0.3016302999892408,8.012,7.488766849725412
677,12,306,450150,1,1,1,0.541628795956,0,,0.0,450150,13.0,-103.37050446503675,-0.3905696645705083,1.104,54.347826086956516
678,12,310,455142,0,0,0,0.590242528397,0,,0.0,455142,161.5,-121.16999187922572,-0.4580170036758046,4.992,12.01923076923077
679,12,314,460554,0,0,0,0.437466001888,0,,0.0,460554,159.5,-121.16999187922572,-0.46050171227341863,5.412,11.086474501108647
680,12,315,461948,1,0,0,0.881907531984,0,,0.0,461948,-20.5,-100.89269194892385,-0.38118052559561894,1.394,43.04160688665711
681,12,317,464848,0,0,0,0.5068726073,0,,0.0,464848,-11.5,-64.7926246908085,-0.24438706511983282,2.9,20.689655172413794
682,12,318,466046,1,0,0,0.57635847036,0,,0.0,466046,140.5,-28.529546248667653,-0.10697590873230045,1.198,50.08347245409015
683,12,319,467348,1,2,1,0.590193491291,0,,0.0,467348,-9.0,-4.94344141099643,-0.01760142427993643,1.302,46.08294930875576
684,12,320,468452,1,0,0,0.638823189307,0,,0.0,468452,66.5,-3.1329289246401446,0.009920242340061291,1.104,54.347826086956516
685,12,323,472800,1,0,0,0.784691471075,0,,0.0,472800,130.5,-3.1329289246401446,-0.010740875614680966,4.348,13.799448022079117
686,12,324,473882,0,2,1,0.534856828759,0,,0.0,473882,13.5,-14.043885067857067,-0.05208560323688928,1.082,55.452865064695004
687,12,326,476630,1,1,1,0.652689856281,0,,0.0,476630,273.5,-22.353565937249037,-0.08391621087809495,2.748,21.834061135371176
688,12,328,479488,0,1,1,0.534704300553,0,,0.0,479488,-11.0,-22.353565937249037,-0.08357335624981566,2.858,20.99370188943317
689,12,329,480784,0,1,1,0.701443287442,0,,0.0,480784,59.0,-12.731924986981255,-0.04711421195980655,1.296,46.2962962962963
690,12,330,482090,0,2,1,0.659696460316,0,,0.0,482090,23.5,0.5355837322736213,0.003160166107772958,1.306,45.94180704441041
691,12,331,483182,0,0,0,0.513775150052,0,,0.0,483182,-66.5,6.136352983013502,0.031948724350946735,1.092,54.94505494505494
692,12,334,487140,0,0,0,0.527680020343,0,,0.0,487140,639.5,6.136352983013502,0.024383079673476984,3.958,15.159171298635673
693,12,335,488230,1,0,0,0.645814968171,0,,0.0,488230,162.5,6.136352983013502,0.016758420527361484,1.09,55.04587155963302
694,12,337,491028,0,1,1,0.51386467128,0,,0.0,491028,67.0,18.13985149484995,0.06986776222295152,2.798,21.44388849177984
695,12,338,492228,0,0,0,0.624967356118,0,,0.0,492228,185.5,50.682741069790595,0.1931820609750342,1.2,50.0
696,12,339,493426,0,1,1,0.520799715356,0,,0.0,493426,-19.0,86.4821043960243,0.3288360684097316,1.198,50.08347245409015
697,12,341,495728,1,0,0,0.576355904472,0,,0.0,495728,95.5,102.52764298642136,0.40654894855879536,2.302,26.064291920069504
698,12,342,497028,0,2,1,0.520758375933,0,,0.0,497028,113.0,102.52764298642136,0.38963719471469044,1.3,46.15384615384615
699,12,343,498332,0,2,1,0.486057781673,0,,0.0,498332,116.0,76.3382940094633,0.2903982750597493,1.304,46.012269938650306
700,12,347,503426,0,2,1,0.388859682032,0,,0.0,503426,144.0,41.37245545860193,0.15790273094868604,5.094,11.77856301531213
701,12,349,506132,0,1,1,0.534552627643,0,,0.0,506132,179.5,12.240297416676595,0.04751266765076759,2.706,22.172949002217294
702,12,354,512426,0,2,1,0.604087812913,0,,0.0,512426,-21.5,-1.9748147147916568,-0.006352450261934794,6.294,9.532888465204957
703,12,361,522376,1,1,1,0.951217773785,0,,0.0,522376,13.5,-1.9748147147916568,-0.007420074130618404,9.95,6.030150753768845
704,12,369,533316,1,1,1,0.819409456402,0,,0.0,533316,24.0,-2.2565627847052023,0.0073557609821846785,10.94,5.484460694698355
705,12,373,538600,0,0,0,0.611075600391,0,,0.0,538600,82.5,-5.476904212518841,-0.019622867124726513,5.284,11.355034065102195
706,12,374,539712,1,2,1,0.624949109748,0,,0.0,539712,-48.5,-10.14902340405657,-0.03732686051055889,1.112,53.956834532374096
707,12,375,540900,1,0,0,0.715246662337,0,,0.0,540900,195.5,-10.14902340405657,-0.039534063716878745,1.188,50.505050505050505
708,12,385,562452,1,2,1,0.611005465922,0,,0.0,562452,-25.0,-10.228555939908373,-0.03466984762538075,21.552,2.7839643652561246
709,12,391,570500,0,0,0,0.513837586826,0,,0.0,570500,-223.0,-10.228555939908373,-0.037628231993381736,8.048,7.455268389662028
710,12,399,581550,0,1,1,0.638868805217,0,,0.0,581550,113.0,-19.131056860799905,-0.07136234941622008,11.05,5.4298642533936645
711,12,400,582952,1,2,1,0.465199050734,0,,0.0,582952,115.0,-39.1706972963261,-0.14729826782506655,1.402,42.796005706134096
712,12,403,586986,1,2,1,0.604144262601,0,,0.0,586986,81.0,-62.48298926336845,-0.23563519714413061,4.034,14.873574615765989
713,12,405,589482,0,0,0,0.652729485097,0,,0.0,589482,29.5,-73.53399934099112,-0.2865298989383535,2.496,24.03846153846154
714,12,406,591090,0,0,0,0.53473822739,0,,0.0,591090,4.0,-73.53399934099112,-0.2775106291055754,1.608,37.31343283582089
715,12,411,596876,0,1,1,0.604096650997,0,,0.0,596876,-36.5,-60.288228437616084,-0.2273186218279484,5.786,10.369858278603527
716,12,412,597988,0,1,1,0.756953005344,0,,0.0,597988,178.0,-45.76052655610225,-0.17226901211604076,1.112,53.956834532374096
717,12,415,602392,1,0,0,0.520758090839,0,,0.0,602392,87.0,-35.20346025580504,-0.1322652741350453,4.404,13.623978201634877
718,12,418,606376,0,2,1,0.548528772808,0,,0.0,606376,135.5,-26.568385151372652,-0.09954450947391917,3.984,15.060240963855422
719,12,421,610562,1,0,0,0.701302448324,0,,0.0,610562,186.0,-15.219327683241826,-0.05653969086502363,4.186,14.33349259436216
720,12,424,614060,1,0,0,0.45825887486,0,,0.0,614060,14.0,0.9467060214128296,0.004718025826093467,3.498,17.152658662092623
721,12,432,623900,1,0,0,0.763761465278,0,,0.0,623900,-2.5,18.727254383358268,0.07209359945582985,9.84,6.097560975609756
722,12,433,625100,0,0,0,0.520757805738,0,,0.0,625100,-3.0,26.83992543818875,0.11407442405265557,1.2,50.0
723,12,434,626402,0,0,0,0.56244248119,0,,0.0,626402,105.5,26.83992543818875,0.1028348260401801,1.302,46.08294930875576
724,12,436,629312,0,0,0,0.576280353111,0,,0.0,629312,36.0,10.44985640116551,0.040728175518429985,2.91,20.618556701030926
725,12,439,632804,1,2,1,0.493025041993,0,,0.0,632804,120.0,-11.084589423725696,-0.04087198723896761,3.492,17.18213058419244
726,12,440,633798,0,2,1,0.541633072447,0,,0.0,633798,-25.5,-28.34071217446156,-0.10626036251789317,0.994,60.36217303822938
727,12,441,635206,1,1,1,0.74992644434,0,,0.0,635206,20.0,-36.99007376022633,-0.1390352627352083,1.408,42.61363636363637
728,12,442,636810,1,1,1,0.46515257952,0,,0.0,636810,250.5,-36.99007376022633,-0.1430262788755594,1.604,37.40648379052369
729,12,443,637898,1,2,1,0.444412735043,0,,0.0,637898,-27.0,-32.690279271054955,-0.12274211393570732,1.088,55.147058823529406
730,12,444,638902,0,0,1,0.805549061624,0,,0.0,638902,-29.0,-21.974498709702626,-0.08213696231076062,1.004,59.7609561752988
731,12,446,641408,1,0,0,0.833277833968,0,,0.0,641408,196.5,-10.662958340939605,-0.03927430670153048,2.506,23.94253790901836
732,12,447,642802,1,0,0,0.541638204239,0,,0.0,642802,-24.0,-3.790174331656065,-0.013231366088415833,1.394,43.04160688665711
733,12,448,643810,1,1,1,0.576317701139,0,,0.0,643810,22.5,-3.790174331656065,-0.007552345147489569,1.008,59.523809523809526
734,12,449,645000,0,2,1,0.506888002674,0,,0.0,645000,132.0,-5.2844630102493,-0.01889365247234513,1.19,50.420168067226896
735,12,453,650858,0,2,1,0.597108578419,0,,0.0,650858,-101.0,-11.485747889754819,-0.04239209118711041,5.858,10.242403550699898
736,12,454,652454,0,2,1,0.562419103029,0,,0.0,652454,173.5,-19.08492426412384,-0.07118753983775221,1.596,37.59398496240601
737,12,457,656150,0,1,1,0.555538512941,0,,0.0,656150,200.5,-24.35484184528484,-0.09413956556982031,3.696,16.233766233766232
738,12,461,661626,1,1,1,0.527703683598,0,,0.0,661626,13.0,-24.35484184528484,-0.09115676197783398,5.476,10.95690284879474
739,12,462,663126,0,1,1,0.527753290902,0,,0.0,663126,45.0,-13.82168071678688,-0.05124360751709365,1.5,40.0
740,12,465,667156,0,0,0,0.548559563547,0,,0.0,667156,178.5,2.1331181881658257,0.009213680215885051,4.03,14.888337468982629
741,12,467,669900,1,2,1,0.631937752529,0,,0.0,669900,187.5,17.55879154212978,0.06766596018451847,2.744,21.865889212827987
742,12,469,672096,0,1,1,0.562461297748,0,,0.0,672096,-30.5,30.73145883277134,0.11758095700430914,2.196,27.322404371584696
743,12,471,674496,1,0,0,0.680520409129,0,,0.0,674496,127.5,40.64730939233598,0.15515494549317213,2.4,25.0
744,12,472,675600,1,2,1,0.562431362312,0,,0.0,675600,76.0,40.64730939233598,0.16900185765952835,1.104,54.347826086956516
745,12,473,676702,1,0,0,0.763852697099,0,,0.0,676702,80.5,40.42287730408912,0.1543045082412528,1.102,54.44646098003629
746,12,474,677900,1,0,0,0.56246956563,0,,0.0,677900,1068.5,40.42287730408912,0.1372373028047848,1.198,50.08347245409015
747,12,477,681900,1,1,1,0.624914042513,0,,0.0,681900,66.5,49.886189407410995,0.19016369933139626,4.0,15.0
748,12,478,683316,0,0,0,0.555444715224,0,,0.0,683316,123.5,97.70621240654548,0.37136741785390825,1.416,42.37288135593221
749,12,481,687382,0,0,0,0.763810217279,0,,0.0,687382,206.5,166.4130357596092,0.6317171855583246,4.066,14.756517461878998
750,12,486,694586,1,1,1,0.527760133293,0,,0.0,694586,15.0,221.9474669167871,0.8421529988555123,7.204,8.32870627429206
751,12,488,697422,0,0,0,0.604142552002,0,,0.0,697422,-99.0,221.9474669167871,0.897481432635443,2.836,21.156558533145276
752,12,490,699826,0,0,0,0.45848524382,0,,0.0,699826,74.5,200.96496278348565,0.7626443007326148,2.404,24.958402662229616
753,12,494,705826,0,0,0,0.499965788069,0,,0.0,705826,-39.5,124.71911435889413,0.473727014835662,6.0,10.0
754,12,496,708022,0,0,0,0.631912378682,0,,0.0,708022,-68.0,30.945197659954058,0.11839087443740719,2.196,27.322404371584696
755,12,497,709136,0,0,0,0.493009076425,0,,0.0,709136,9.0,-55.63151781187739,-0.20967301589667525,1.114,53.85996409335726
756,12,499,711734,1,1,1,0.708302780178,0,,0.0,711734,47.0,-117.85726093366034,-0.44546412042411926,2.598,23.094688221709006
757,12,500,713036,0,1,1,0.513844714311,0,,0.0,713036,89.0,-144.48213410002023,-0.5573762152287274,1.302,46.08294930875576
758,12,501,714226,0,1,1,0.444412164856,0,,0.0,714226,-61.0,-144.48213410002023,-0.5463533655635869,1.19,50.420168067226896
759,12,503,716338,0,2,1,0.65964229143,0,,0.0,716338,-131.5,-119.38421176764354,-0.45125017303902104,2.112,28.409090909090907
760,12,505,719024,1,2,1,0.590236541306,0,,0.0,719024,57.0,-89.7170461484079,-0.3388328132998587,2.686,22.338049143708115
761,13,1,8104,1,1,1,0.680514192496,0,,0.0,8104,23.0,-70.06276929441552,-0.26435714751277156,-710.92,-0.08439768187700444
762,13,6,15206,1,0,2,0.56940232892,0,,1.0,15206,120.0,-63.06556676705899,-0.2378427496164119,7.102,8.448324415657561
763,13,8,18460,1,1,2,0.56940232892,0,,1.0,18460,14.5,-61.701536862193976,-0.23267405091164714,3.254,18.43884449907806
764,13,9,20140,1,2,1,0.555530371843,0,,0.0,20140,-158.5,-59.17063174209398,-0.2230837289036865,1.68,35.714285714285715
765,13,10,21136,0,0,0,0.631912002595,0,,0.0,21136,-89.5,-59.17063174209398,-0.21387154917392198,0.996,60.24096385542169
766,13,12,23788,1,2,1,0.541635234542,0,,0.0,23788,-23.5,-61.41218832623558,-0.23157762670738327,2.652,22.62443438914027
767,13,15,27980,1,2,1,0.701356613346,0,,0.0,27980,-35.5,-76.2442117007029,-0.28778039743200085,4.192,14.31297709923664
768,13,16,29278,0,0,0,0.562441732967,0,,0.0,29278,-112.5,-96.61292921171032,-0.3649632828228329,1.298,46.22496147919877
769,13,19,33336,0,2,1,0.819374048839,0,,0.0,33336,16.5,-115.37173015401095,-0.43604573474532565,4.058,14.785608674223756
770,13,20,34838,1,0,2,0.56940232892,0,,1.0,34838,85.0,-125.80296856252556,-0.47861178895547735,1.502,39.94673768308922
771,13,28,46608,0,0,0,0.499921882973,0,,0.0,46608,-101.5,-125.80296856252556,-0.4755726749237507,11.77,5.097706032285472
772,13,40,62834,0,2,1,0.604140259406,0,,0.0,62834,91.5,-112.31247754406625,-0.4244533532688109,16.226,3.697769012695674
773,13,41,63934,0,0,1,0.423485513282,0,,0.0,63934,-8.5,-90.59893770379749,-0.342174552160442,1.1,54.54545454545454
774,13,43,66430,1,1,1,0.826353833636,0,,0.0,66430,-119.5,-67.45931536407608,-0.2544919173520062,2.496,24.03846153846154
775,13,47,72006,1,1,1,0.97212733189,0,,0.0,72006,55.0,-50.04612240090115,-0.18850835819866898,5.576,10.760401721664277
776,13,50,76706,0,0,0,0.597142228296,0,,0.0,76706,48.5,-42.902227575331935,-0.16082052294140406,4.7,12.76595744680851
777,13,51,78102,1,2,1,0.52078910741,0,,0.0,78102,87.0,-42.73924741183097,-0.1614381013075273,1.396,42.97994269340975
778,13,52,79406,1,0,1,0.694404768219,0,,0.0,79406,155.0,-42.46795312525582,-0.15979251144207418,1.304,46.012269938650306
779,13,54,81706,1,2,1,0.548534051322,0,,0.0,81706,143.0,-33.52482312921224,-0.1259044388549354,2.3,26.086956521739133
780,13,57,85320,1,1,1,0.458260704454,0,,0.0,85320,133.5,-12.482266529156425,-0.04616818479208072,3.614,16.602102933038186
781,13,58,86518,0,0,0,0.541563104587,0,,0.0,86518,108.5,18.011007060542735,0.0693795338796105,1.198,50.08347245409015
782,13,59,87718,0,0,0,0.416628320902,0,,0.0,87718,176.5,50.561084316299514,0.19272106880620235,1.2,50.0
783,13,61,90516,1,0,2,0.56940232892,0,,1.0,90516,50.0,77.30540021098571,0.29406291654110567,2.798,21.44388849177984
784,13,62,91960,0,2,1,0.52770331952,0,,0.0,91960,32.0,92.42062231785397,0.35133880810869816,1.444,41.551246537396125
785,13,63,93064,0,1,1,0.486063238299,0,,0.0,93064,103.5,92.42062231785397,0.35154765450058834,1.104,54.347826086956516
786,13,64,94256,0,0,0,0.49301422813,0,,0.0,94256,184.0,78.81338929947363,0.2997771176892383,1.192,50.33557046979866
787,13,65,95366,1,2,1,0.451296885181,0,,0.0,95366,102.0,59.39031817407597,0.2261775564110476,1.11,54.05405405405405
788,13,66,96656,0,0,0,0.43745876761,0,,0.0,96656,215.0,44.70386067644898,0.17052637634906803,1.29,46.51162790697674
789,13,70,101370,0,2,1,0.395815550306,0,,0.0,101370,333.0,44.70386067644898,0.16266475991937132,4.714,12.728044123886296
790,13,72,103928,0,2,1,0.513848096027,0,,0.0,103928,381.5,58.17907928088741,0.22158782646740385,2.558,23.455824863174357
791,13,74,106418,0,0,0,0.361087400408,0,,0.0,106418,174.0,92.87389062857542,0.35305637113439203,2.49,24.096385542168672
792,13,75,107526,0,1,1,0.451303442453,0,,0.0,107526,95.0,139.3824178579898,0.5292904577873391,1.108,54.15162454873646
793,13,76,108624,1,1,1,0.513852657601,0,,0.0,108624,-31.5,179.44992173904564,0.6811176682279093,1.098,54.64480874316939
794,13,78,111328,1,0,0,0.583236542345,0,,0.0,111328,144.0,179.44992173904564,0.7315342546781232,2.704,22.189349112426033
795,13,79,112428,1,0,0,0.513855223489,0,,0.0,112428,184.0,171.3235839679382,0.6503246545540919,1.1,54.54545454545454
796,13,80,113432,0,0,1,0.569404411846,0,,0.0,113432,139.0,125.86033623187035,0.4780514303016742,1.004,59.7609561752988
797,13,84,118792,0,2,1,0.430478412618,0,,0.0,118792,205.5,77.49187883419054,0.29476953727924887,5.36,11.194029850746269
798,13,86,121188,1,1,1,0.458301473558,0,,0.0,121188,157.0,44.32381060160515,0.16908625812102562,2.396,25.041736227045075
799,13,89,124682,0,0,0,0.423583017018,0,,0.0,124682,220.0,44.32381060160515,0.13115902695798784,3.494,17.172295363480252
800,13,90,125980,0,1,1,0.444403485275,0,,0.0,125980,40.0,44.81386951912377,0.17094323125863992,1.298,46.22496147919877
801,13,96,134440,0,2,1,0.388832059227,0,,0.0,134440,176.0,65.28326434751482,0.2485076117458067,8.46,7.092198581560283
802,13,100,139036,1,0,0,0.499925019059,0,,0.0,139036,125.5,83.23222909666191,0.31652136314516943,4.596,13.054830287206267
803,13,101,140130,0,2,1,0.492840603063,0,,0.0,140130,173.5,90.02486363559214,0.346840451079122,1.094,54.84460694698354
804,13,104,143636,1,2,1,0.430520607217,0,,0.0,143636,317.5,90.02486363559214,0.3422605945345162,3.506,17.113519680547633
805,13,105,144932,1,0,0,0.604086090665,0,,0.0,144932,384.5,90.02486363559214,0.33344592367194825,1.296,46.2962962962963
806,13,106,146034,0,1,1,0.451414630919,0,,0.0,146034,231.0,95.21732918992579,0.36193632883440024,1.102,54.44646098003629
807,13,107,147236,0,1,1,0.36792948256,0,,0.0,147236,137.5,117.03561851202477,0.4446120556326895,1.202,49.91680532445923
808,13,109,149840,0,2,1,0.444399208794,0,,0.0,149840,130.5,144.78827999246667,0.5497748126485859,2.604,23.04147465437788
809,13,110,150940,1,0,0,0.541621549808,0,,0.0,150940,23.0,156.73831790691082,0.6164173002991058,1.1,54.54545454545454
810,13,113,155180,0,0,0,0.548612453451,0,,0.0,155180,73.0,156.73831790691082,0.5950569177329242,4.24,14.150943396226415
811,13,116,159094,1,0,0,0.673584014861,0,,0.0,159094,-113.5,124.15282625735148,0.4715811875583217,3.914,15.329586101175268
812,13,118,161934,0,0,0,0.451312280511,0,,0.0,161934,55.5,69.89561785695243,0.26598513590060646,2.84,21.126760563380284
813,13,120,164238,1,0,0,0.430507207577,0,,0.0,164238,230.0,6.658790240061878,0.026362743582747386,2.304,26.041666666666668
814,13,123,168480,0,0,0,0.548579382008,0,,0.0,168480,181.5,-46.35628117572299,-0.1745264964423071,4.242,14.144271570014144
815,13,127,173278,1,1,1,0.576352835793,0,,0.0,173278,135.5,-60.13990359673456,-0.26631520736062925,4.798,12.505210504376823
816,13,128,174378,0,1,1,0.368026701199,0,,0.0,174378,78.5,-60.13990359673456,-0.2267565766629455,1.1,54.54545454545454
817,13,131,203184,0,0,0,0.465191737385,0,,0.0,203184,86.0,-25.79182635121762,-0.09660190649269478,28.806,2.082899395959175
818,13,135,208654,0,2,1,0.548573394939,0,,0.0,208654,73.0,13.157226520796023,0.050987173785801504,5.47,10.96892138939671
819,13,136,209754,1,2,1,0.437463614286,0,,0.0,209754,-48.0,39.535559650970605,0.15094220834736413,1.1,54.54545454545454
820,13,142,217230,1,0,0,0.604100915793,0,,0.0,217230,7.0,39.535559650970605,0.16635392116662448,7.476,8.025682182985554
821,13,146,222350,1,0,0,0.618077306204,0,,0.0,222350,111.0,24.713189811027707,0.09477601762089384,5.12,11.71875
822,13,152,230704,0,0,0,0.520793668988,0,,0.0,230704,-45.0,-8.49059892059973,-0.031042616705477602,8.354,7.182188173330142
823,13,154,233432,0,0,0,0.611030523232,0,,0.0,233432,534.5,-40.870458773324145,-0.15373914929931717,2.728,21.994134897360702
824,13,155,234830,1,0,0,0.520762878332,0,,0.0,234830,25.5,-40.870458773324145,-0.20752140947137265,1.398,42.91845493562232
825,13,160,241076,1,2,1,0.562536385711,0,,0.0,241076,114.5,-40.42851012315017,-0.15206447969890777,6.246,9.606147934678193
826,13,161,242182,1,2,1,0.444367847944,0,,0.0,242182,188.0,-2.960265861284262,-0.010086605976790154,1.106,54.24954792043399
827,13,163,245294,0,2,1,0.416581279624,0,,0.0,245294,705.0,42.44284041835255,0.1619587251283813,3.112,19.28020565552699
828,13,164,246592,0,2,1,0.381912430243,0,,0.0,246592,-13.5,88.91305354584722,0.3380476287114702,1.298,46.22496147919877
829,13,165,247586,0,0,0,0.506903948561,0,,0.0,247586,153.0,134.23325842874888,0.5097788227582092,0.994,60.36217303822938
830,13,167,250282,1,0,0,0.38200309161,0,,0.0,250282,-9.5,166.9984228066634,0.6339353841924628,2.696,22.255192878338278
831,13,169,252588,0,1,1,0.395931015253,0,,0.0,252588,76.5,166.9984228066634,0.6491927804534037,2.306,26.019080659150042
832,13,172,256384,1,2,1,0.49996464777,0,,0.0,256384,21.0,140.12817004129965,0.5321163257028454,3.796,15.806111696522656
833,13,173,257682,1,0,0,0.465308342726,0,,0.0,257682,37.0,82.71812781202816,0.3145732866150824,1.298,46.22496147919877
834,13,181,268540,0,1,1,0.548570258852,0,,0.0,268540,-67.0,15.381763671119366,0.05941658009615309,10.858,5.525879535826118
835,13,183,271554,1,2,1,0.708293063151,0,,0.0,271554,-26.0,-46.532740168282196,-0.17519514993958885,3.014,19.907100199071003
836,13,186,275262,0,0,0,0.652727624176,0,,0.0,275262,50.5,-93.825155800433,-0.354399613530353,3.708,16.181229773462782
837,13,187,276870,0,0,0,0.45819912315,0,,0.0,276870,95.0,-121.83119457643951,-0.4605224894518032,1.608,37.31343283582089
838,13,189,279060,0,0,0,0.611074998618,0,,0.0,279060,-45.5,-121.83119457643951,-0.48653465249852756,2.19,27.397260273972602
839,13,193,284862,1,1,1,0.590222599316,0,,0.0,284862,87.0,-117.42533895420944,-0.44382744474143454,5.802,10.34126163391934
840,13,199,293060,0,1,1,0.52768165202,0,,0.0,293060,6.0,-96.05242423316918,-0.36283936944947726,8.198,7.318858258111734
841,13,201,295278,0,0,0,0.54850839245,0,,0.0,295278,7.0,-73.62462102146692,-0.27785402052304237,2.218,27.051397655545536
842,13,206,302288,1,2,1,0.479283592747,0,,0.0,302288,32.5,-57.02378587268886,-0.2149487170355838,7.01,8.559201141226819
843,13,211,309008,1,2,1,0.527733825071,0,,0.0,309008,-26.5,-51.458907996260265,-0.1874517892436466,6.72,8.928571428571429
844,13,214,312612,0,0,0,0.388978029729,0,,0.0,312612,94.5,-51.458907996260265,-0.19386180613320358,3.604,16.64816870144284
845,13,221,321962,1,2,1,0.513858644677,0,,0.0,321962,-36.5,-58.399557005210085,-0.22016190660375454,9.35,6.4171122994652405
846,13,222,323260,1,1,1,0.423569047183,0,,0.0,323260,-85.5,-66.56338049108241,-0.2510969643520174,1.298,46.22496147919877
847,13,227,329604,1,1,1,0.444423157081,0,,0.0,329604,7.0,-75.06166824550492,-0.2832994026947082,6.344,9.457755359394703
848,13,236,340016,1,2,1,0.465150398086,0,,0.0,340016,-154.0,-85.49682889583654,-0.32284120536707644,10.412,5.762581636573184
849,13,242,348826,0,2,1,0.520886611142,0,,0.0,348826,17.0,-98.90825235730657,-0.37366091747684294,8.81,6.81044267877412
850,13,246,353732,1,1,1,0.478588807367,0,,0.0,353732,1124.5,-98.90825235730657,-0.4099903108353113,4.906,12.22992254382389
851,13,247,354886,1,1,1,0.423557928334,0,,0.0,354886,655.0,-88.73624258155719,-0.33511626859103016,1.154,51.99306759098787
852,13,249,357110,0,0,0,0.513931915026,0,,0.0,357110,26.5,-9.984029884246254,-0.036701652962618396,2.224,26.978417266187048
853,13,250,358432,0,1,1,0.444413748828,0,,0.0,358432,-81.0,119.41887329023852,0.45364288834489236,1.322,45.3857791225416
854,13,252,361082,1,0,0,0.687465182327,0,,0.0,361082,-86.5,242.86669962654224,0.9214219434922392,2.65,22.641509433962266
855,13,258,391958,1,0,0,1.06935508978,0,,0.0,391958,-121.5,256.4111659265625,1.128344650645335,30.876,1.9432568985619898
856,13,259,393364,1,0,0,0.708357210344,0,,0.0,393364,-174.5,256.4111659265625,0.9727457928975594,1.406,42.67425320056899
857,13,263,398562,0,2,1,0.541631813358,0,,0.0,398562,-226.5,135.67296322974343,0.5152342752476329,5.198,11.542901115813773
858,13,267,403808,0,0,0,0.506843222553,0,,0.0,403808,-349.0,-24.559148976068155,-0.0919309400207695,5.246,11.43728555089592
859,13,268,404840,1,1,1,0.555528946352,0,,0.0,404840,-266.0,-182.60937407289592,-0.6908283621609386,1.032,58.13953488372093
860,13,270,407328,0,0,0,0.562472238518,0,,0.0,407328,-131.5,-308.0536847038214,-1.166172666245196,2.488,24.115755627009648
861,13,271,408438,0,1,1,0.46521311978,0,,0.0,408438,-127.5,-383.1486399309207,-1.450728889266633,1.11,54.05405405405405
862,13,272,409728,0,2,1,0.423534835347,0,,0.0,409728,-106.5,-383.1486399309207,-1.5223980870906824,1.29,46.51162790697674
863,13,273,410834,1,0,0,0.618021426872,0,,0.0,410834,-71.5,-371.75723833213425,-1.40756361665853,1.106,54.24954792043399
864,13,274,412134,0,0,0,0.541594750535,0,,0.0,412134,-106.0,-309.70726010538345,-1.172438535494691,1.3,46.15384615384615
865,13,276,414512,1,2,1,0.458236471073,0,,0.0,414512,38.0,-236.97511733591173,-0.8968356833970027,2.378,25.231286795626577
866,13,283,423982,1,2,2,0.56940232892,0,,1.0,423982,-167.0,-170.98265591911024,-0.6467714079491581,9.47,6.335797254487856
867,13,284,425676,1,2,1,0.666609932035,0,,0.0,425676,-162.5,-123.2321338456993,-0.4658310482749279,1.694,35.41912632821724
868,13,289,431786,1,2,1,0.541636089838,0,,0.0,431786,169.5,-99.14353613363014,-0.374552474872761,6.11,9.819967266775777
869,13,290,432896,1,0,0,0.812454134757,0,,0.0,432896,54.0,-93.81747149914905,-0.35437049551911903,1.11,54.05405405405405
870,13,291,434506,0,1,1,0.465254744184,0,,0.0,434506,28.0,-92.62231463586029,-0.3498417049777689,1.61,37.267080745341616
871,13,293,437186,1,1,1,0.451434302726,0,,0.0,437186,42.5,-82.89743081468626,-0.31299134397672873,2.68,22.388059701492537
872,13,294,438378,1,0,0,0.652735321837,0,,0.0,438378,-40.5,-62.832173641820994,-0.23695835643718904,1.192,50.33557046979866
873,13,295,439586,0,0,0,0.437463329188,0,,0.0,439586,-9.5,-39.49539478745478,-0.1485286393116824,1.208,49.66887417218543
874,13,296,440688,1,2,1,0.465246761421,0,,0.0,440688,-73.0,-22.472718140581428,-0.084024857963112,1.102,54.44646098003629
875,13,298,443190,0,0,0,0.555594233938,0,,0.0,443190,-94.0,-22.472718140581428,-0.06964510035860934,2.502,23.980815347721826
876,13,300,445826,0,2,1,0.361034657159,0,,0.0,445826,-89.5,-30.136777671572812,-0.11306616741665772,2.636,22.761760242792107
877,13,302,448232,1,1,1,0.506858617879,0,,0.0,448232,37.0,-53.36014806907208,-0.20106614752391658,2.406,24.937655860349125
878,13,305,452556,1,2,1,0.437425981268,0,,0.0,452556,235.0,-78.20870909592229,-0.2952244388756443,4.324,13.876040703052729
879,13,308,455860,0,1,1,0.43741286673,0,,0.0,455860,210.5,-78.20870909592229,-0.335605618971616,3.304,18.159806295399516
880,13,309,456954,1,0,0,0.972195185368,0,,0.0,456954,107.5,-71.79424592998527,-0.27091820677670725,1.094,54.84460694698354
881,13,311,459756,0,1,1,0.534710758882,0,,0.0,459756,25.0,-27.13132163031527,-0.10167763649642642,2.802,21.41327623126338
882,13,312,461068,0,0,0,0.416590117686,0,,0.0,461068,-184.0,27.66751620125335,0.10597080369717335,1.312,45.731707317073166
883,13,317,468124,1,0,0,0.680620819385,0,,0.0,468124,-181.5,65.80513691250016,0.2504851358756453,7.056,8.503401360544217
884,13,319,470828,1,0,2,0.56940232892,0,,1.0,470828,21.5,65.80513691250016,0.25215902370039184,2.704,22.189349112426033
885,13,320,472230,0,0,0,0.513771404494,0,,0.0,472230,16.0,27.947020281994508,0.10702992445028195,1.402,42.796005706134096
886,13,323,475978,1,0,0,0.847184565442,0,,0.0,475978,116.5,-28.67178339138283,-0.10751488587107084,3.748,16.008537886872997
887,13,325,478804,1,0,0,0.7082614172,0,,0.0,478804,108.5,-75.19889048110123,-0.28381937691877906,2.826,21.231422505307854
888,13,326,480308,1,0,0,0.680583186364,0,,0.0,480308,-10.5,-75.82081871959147,-0.3464670617580738,1.504,39.8936170212766
889,13,329,484528,0,2,1,0.576259608537,0,,0.0,484528,75.5,-75.82081871959147,-0.28617604055883267,4.22,14.218009478672986
890,13,333,490156,0,2,1,0.472150139783,0,,0.0,490156,164.0,-39.26430835949942,-0.1476529868669658,5.628,10.660980810234541
891,13,335,492662,0,2,1,0.541703943312,0,,0.0,492662,60.5,3.1201400466078164,0.012953787806714238,2.506,23.94253790901836
892,13,337,494964,1,0,0,0.902771386816,0,,0.0,494964,137.0,40.749779640321215,0.15554323451539165,2.302,26.064291920069504
893,13,339,497688,0,0,0,0.479114529251,0,,0.0,497688,135.0,67.93390882581164,0.2585516603644626,2.724,22.026431718061673
894,13,340,498882,1,0,0,0.624902567539,0,,0.0,498882,-7.0,82.98146292848442,0.3155711385466947,1.194,50.25125628140704
895,13,342,501176,0,1,1,0.65281286867,0,,0.0,501176,-226.5,82.98146292848442,0.3217849187735596,2.294,26.155187445510027
896,13,344,503928,0,0,0,0.694389372893,0,,0.0,503928,-103.0,68.05691990198699,0.2590177844485692,2.752,21.80232558139535
897,13,345,505238,0,2,1,0.506918488591,0,,0.0,505238,-80.5,29.333058334422848,0.11228201830892065,1.31,45.80152671755725
898,13,347,507428,0,1,1,0.534688521187,0,,0.0,507428,122.0,-25.110136761812402,-0.0940187900337055,2.19,27.397260273972602
899,13,348,508634,0,2,1,0.444418310402,0,,0.0,508634,73.0,-76.6898824445023,-0.28946917110771836,1.206,49.75124378109453
900,13,353,515200,0,2,1,0.506844077845,0,,0.0,515200,439.5,-87.60830868365304,-0.389107092219884,6.566,9.137983551629608
901,13,354,516208,1,1,1,0.604123153487,0,,0.0,516208,209.0,-87.60830868365304,-0.3308422050559389,1.008,59.523809523809526
902,13,355,517402,0,0,0,0.805486609202,0,,0.0,517402,297.0,-28.00278331973977,-0.10497985361741125,1.194,50.25125628140704
903,13,358,521838,1,1,1,0.659688022264,0,,0.0,521838,-27.0,59.852807721675184,0.22793006133569577,4.436,13.525698827772768
904,13,359,523024,1,1,1,0.499962081882,0,,0.0,523024,-50.0,144.77249948096758,0.5497150157855882,1.186,50.59021922428331
905,13,360,524324,1,1,1,0.444460790099,0,,0.0,524324,-17.5,189.11186191080458,0.7347038252143876,1.3,46.15384615384615
906,13,364,529884,1,2,1,0.638809393888,0,,0.0,529884,161.0,189.11186191080458,0.717729517772533,5.56,10.79136690647482
907,13,367,534380,0,0,0,0.694474617383,0,,0.0,534380,83.0,140.38671641686037,0.5330960317281429,4.496,13.345195729537366
908,13,369,537112,0,0,1,0.492997692414,0,,0.0,537112,98.5,74.96969317447059,0.28521225579584847,2.732,21.961932650073205
909,13,375,545840,0,1,1,0.492982582182,0,,0.0,545840,-119.0,19.49458923596764,0.07500125026660548,8.728,6.8744271310724105
910,13,376,547036,0,1,1,0.458260134259,0,,0.0,547036,113.5,-14.218050883161027,-0.05274556723090814,1.196,50.16722408026756
911,13,377,548536,0,0,0,0.562466536547,0,,0.0,548536,45.5,-26.718514526170665,-0.10386565070938403,1.5,40.0
912,13,378,549530,1,2,1,0.750134994203,0,,0.0,549530,31.0,-26.718514526170665,-0.1001133925330794,0.994,60.36217303822938
913,13,380,552030,1,0,0,0.854098492455,0,,0.0,552030,126.0,-16.697385090502486,-0.06214047232826597,2.5,24.0
914,13,382,555038,0,1,1,0.402669891704,0,,0.0,555038,236.0,-1.4348997384646487,-0.0043065582848811935,3.008,19.9468085106383
915,13,385,583352,0,1,1,0.451370440634,0,,0.0,583352,-75.0,17.79611706113153,0.06856525432630883,28.314,2.1190930281839373
916,13,386,584552,0,0,1,0.46523279159,0,,0.0,584552,18.5,37.84059274795276,0.14451949488265128,1.2,50.0
917,13,390,589858,1,0,0,0.756918916235,0,,0.0,589858,39.5,50.239601741280914,0.1930241708833871,5.306,11.307953260459856
918,13,391,591246,1,0,0,0.485983980878,0,,0.0,591246,165.5,50.239601741280914,0.19150287955450296,1.388,43.22766570605187
919,13,393,593448,0,2,1,0.590243981711,0,,0.0,593448,206.0,40.58061715164905,0.1549022295543009,2.202,27.247956403269754
920,13,395,595864,0,0,0,0.583298123653,0,,0.0,595864,184.5,38.89376738608066,0.12765603628424638,2.416,24.834437086092716
921,13,399,601420,0,0,0,0.604099490301,0,,0.0,601420,142.5,38.89376738608066,0.1485102742406167,5.556,10.799136069114471
922,13,400,602528,1,2,1,0.5694138201,0,,0.0,602528,115.5,58.27126404394988,0.2219371408510113,1.108,54.15162454873646
923,13,408,612500,1,1,1,0.923578170339,0,,0.0,612500,136.5,83.78885794473692,0.31863058875365396,9.972,6.016847172081829
924,13,412,617724,1,2,1,0.74995851815,0,,0.0,617724,-69.5,104.2106475431689,0.39601457943444496,5.224,11.485451761102603
925,13,416,623014,0,0,0,0.666673223936,0,,0.0,623014,-25.0,104.2106475431689,0.41437281007426996,5.29,11.342155009451796
926,13,425,635630,1,0,0,0.680530158017,0,,0.0,635630,133.0,92.49347836989313,0.35161488048839157,12.616,4.7558655675332915
927,13,426,637046,1,0,0,0.958358208187,0,,0.0,637046,96.5,58.990644983551284,0.22466308059579881,1.416,42.37288135593221
928,13,427,638644,1,0,0,0.645795165754,0,,0.0,638644,61.5,22.663049311441466,0.08700745000591484,1.598,37.546933667083856
929,13,428,640048,0,2,1,0.569422373061,0,,0.0,640048,72.5,-2.6692124756953293,-0.008983721610585737,1.404,42.73504273504274
930,13,430,642348,0,1,1,0.430526309188,0,,0.0,642348,9.0,-9.44137351845338,-0.043673015937560095,2.3,26.086956521739133
931,13,431,643648,1,2,1,0.513830990105,0,,0.0,643648,-167.0,-9.44137351845338,-0.034645373078282894,1.3,46.15384615384615
932,13,435,648978,1,2,1,0.694247963969,0,,0.0,648978,45.5,-9.44137351845338,-0.02375625499343182,5.33,11.25703564727955
933,13,437,651788,0,0,0,0.631858118952,0,,0.0,651788,70.5,-12.177723275395936,-0.045014183464366087,2.81,21.352313167259787
934,13,439,654730,1,0,0,0.430427665058,0,,0.0,654730,132.5,-24.746536452916402,-0.09264100466482181,2.942,20.3942895989123
935,13,446,664354,0,2,1,0.513871474112,0,,0.0,664354,-46.5,-34.707929919898724,-0.13038756823121167,9.624,6.234413965087281
936,13,447,665556,0,2,1,0.416633167577,0,,0.0,665556,-82.5,-34.707929919898724,-0.13486566840115533,1.202,49.91680532445923
937,13,449,668168,0,0,0,0.666656688216,0,,0.0,668168,33.0,-31.65222925469569,-0.1188086460873113,2.612,22.970903522205205
938,13,450,669470,1,0,0,0.986060102212,0,,0.0,669470,108.5,-28.564097589951235,-0.10710683362793755,1.302,46.08294930875576
939,13,455,676380,1,0,0,0.632098457103,0,,0.0,676380,100.5,-27.309361116739137,-0.10235227893615144,6.91,8.683068017366136
940,13,456,677682,1,0,0,0.888724577042,0,,0.0,677682,71.0,-22.912431136208706,-0.08569105603022246,1.302,46.08294930875576
941,13,457,679126,1,2,1,0.680526451735,0,,0.0,679126,27.0,-11.89742129232996,-0.04395203923156829,1.444,41.551246537396125
942,13,458,680536,0,0,0,0.562451711419,0,,0.0,680536,134.5,3.8562226076109067,0.01574301476287333,1.41,42.5531914893617
943,13,459,681732,1,2,1,0.68739846925,0,,0.0,681732,-62.0,19.348840992085005,0.07444896856318309,1.196,50.16722408026756
944,13,460,683028,1,1,1,0.604159646111,0,,0.0,683028,-109.0,24.831133891417778,0.10922864384543693,1.296,46.2962962962963
945,13,461,684438,1,0,0,0.708206678264,0,,0.0,684438,-9.0,24.831133891417778,0.0952229414114739,1.41,42.5531914893617
946,13,467,691954,1,0,0,0.451352194319,0,,0.0,691954,236.5,6.729199065411812,0.026629542721895463,7.516,7.982969664715274
947,13,469,694354,0,2,1,0.541585057184,0,,0.0,694354,169.5,-15.52856149748414,-0.05771146606543751,2.4,25.0
948,13,472,698122,0,0,0,0.465235642572,0,,0.0,698122,91.0,-15.52856149748414,-0.09358120509389509,3.768,15.923566878980893
949,13,475,702058,0,1,1,0.472066890983,0,,0.0,702058,-58.5,-13.206617107911892,-0.04891295591832632,3.936,15.24390243902439
950,13,477,704624,0,1,1,0.701364596112,0,,0.0,704624,-270.0,10.481391581433055,0.04084767131894142,2.566,23.382696804364773
951,13,484,713680,0,1,1,0.409774264601,0,,0.0,713680,82.0,15.336271754979569,0.09650494392382304,9.056,6.625441696113075
952,13,492,724932,1,0,0,0.833242957066,0,,0.0,724932,-223.5,15.336271754979569,0.059244198239134856,11.252,5.332385353714895
953,13,495,728648,0,0,0,0.430417686606,0,,0.0,728648,51.5,-18.39070010475581,-0.06855692631487856,3.716,16.146393972012916
954,13,496,729754,0,2,1,0.513860070168,0,,0.0,729754,-28.0,-62.59247106523401,-0.2360500549456198,1.106,54.24954792043399
955,13,499,733352,0,1,1,0.479132490469,0,,0.0,733352,108.0,-99.43037684068831,-0.37563939619740166,3.598,16.675931072818234
956,13,501,735850,0,1,1,0.437474162936,0,,0.0,735850,763.5,-99.43037684068831,-0.4190341543695351,2.498,24.019215372297836
957,13,505,742056,1,1,1,0.562553491629,0,,0.0,742056,-382.0,-82.39417180551855,-0.31108435192357153,6.206,9.668063164679342
958,13,508,745674,0,0,0,0.583234831756,0,,0.0,745674,-2389.5,-30.832541384858995,-0.10901195531898618,3.618,16.58374792703151
959,13,511,749576,0,1,1,0.423587008398,0,,0.0,749576,-2454.5,-30.832541384858995,-0.11570261474883005,3.902,15.376729882111738
960,14,1,24028,0,0,0,0.472145498794,0,,0.0,24028,-4.5,-190.7626392597561,-0.7217234115001233,-725.548,-0.08269611383395722
961,14,6,31512,1,1,1,0.597214635409,0,,0.0,31512,11.0,-513.441574847196,-1.9444460149248126,7.484,8.017103153393908
962,14,10,36304,1,2,2,0.56940232892,0,,1.0,36304,-112.5,-860.9278565582616,-3.2611707346671244,4.792,12.520868113522537
963,14,19,49000,1,1,1,0.72912900978,0,,0.0,49000,-130.0,-1028.8851157019153,-4.01735575539144,12.696,4.725897920604915
964,14,20,50198,0,2,1,0.632010452886,0,,0.0,50198,64.5,-1028.8851157019153,-3.8976087370125034,1.198,50.08347245409015
965,14,21,51302,0,2,1,0.506911665929,0,,0.0,51302,-32.5,-796.6570918758939,-3.0176304596459023,1.104,54.347826086956516
966,14,23,53928,1,1,1,0.791603707205,0,,0.0,53928,91.0,-461.1139733350838,-1.746161794619637,2.626,22.84843869002285
967,14,25,56650,1,2,1,0.569363270297,0,,0.0,56650,209.5,-128.97341788905274,-0.4875864125031809,2.722,22.04261572373255
968,14,26,57948,1,0,1,0.583308624715,0,,0.0,57948,471.0,126.39177998166846,0.4800652223830939,1.298,46.22496147919877
969,14,30,62756,1,2,1,0.597199240039,0,,0.0,62756,149.5,281.58537005358886,1.0681380389185307,4.808,12.479201331114808
970,14,31,64256,1,0,2,0.56940232892,0,,1.0,64256,225.0,350.058804852396,1.3276034307644777,1.5,40.0
971,14,32,65604,0,0,0,0.486073462145,0,,0.0,65604,192.0,350.058804852396,1.3566541665728646,1.348,44.510385756676556
972,14,33,67002,1,1,1,0.604118318552,0,,0.0,67002,68.5,329.1306177934344,1.2483005555423727,1.398,42.91845493562232
973,14,34,68500,1,2,1,0.583297505835,0,,0.0,68500,216.0,283.85580522890774,1.0767413659482885,1.498,40.053404539385845
974,14,41,77482,1,1,1,0.881829129636,0,,0.0,77482,-126.0,235.18958525016862,0.8923311655027197,8.982,6.680026720106881
975,14,44,81280,1,0,1,0.534697458168,0,,0.0,81280,65.0,189.02031518071007,0.7173826210779831,3.798,15.797788309636651
976,14,49,87790,0,1,1,0.624832789174,0,,0.0,87790,59.5,145.81644822208574,0.5536708355860289,6.51,9.216589861751153
977,14,50,88980,0,1,1,0.451397671535,0,,0.0,88980,-75.5,106.23349691571948,0.40367973317817546,1.19,50.420168067226896
978,14,51,90082,1,2,1,0.534658399543,0,,0.0,90082,38.5,72.60934866726875,0.2762682366407991,1.102,54.44646098003629
979,14,53,92532,1,2,1,0.472139511703,0,,0.0,92532,-153.5,45.84608752104437,0.17485459993943867,2.45,24.489795918367346
980,14,62,104352,1,1,1,0.555449276817,0,,0.0,104352,29.5,24.506487449618973,0.09399276336534226,11.82,5.0761421319796955
981,14,64,106576,1,0,0,0.5763382283,0,,0.0,106576,18.0,7.331305710221758,0.028911096684942496,2.224,26.978417266187048
982,14,71,116326,1,0,0,0.937467712487,0,,0.0,116326,-26.0,-4.213529462250714,-0.014835579535170606,9.75,6.153846153846154
983,14,74,120574,0,1,1,0.555457259601,0,,0.0,120574,89.0,-4.213529462250714,-0.026657707441231943,4.248,14.124293785310734
984,14,75,121574,0,2,1,0.485996770392,0,,0.0,121574,184.5,-0.060262132818092895,0.0009023360263688602,1.0,60.0
985,14,76,122874,0,2,1,0.479130435278,0,,0.0,122874,-28.5,18.61070884007478,0.07165197512159278,1.3,46.15384615384615
