RR_intervals
2.798
10.626
5.078
1.196
1.61
3.09
4.012
1.616
8.2
2.85
1.524
5.622
3.808
2.948
4.806
3.714
1.206
4.26
11.784
8.332
1.394
1.3
6.98
4.044
4.562
1.41
5.608
6.3
2.636
4.14
2.692
2.602
4.256
4.562
4.118
1.504
2.5
1.51
2.516
3.81
3.604
2.652
9.276
4.318
5.796
5.006
1.416
10.13
2.704
5.112
1.494
6.442
1.404
1.296
2.812
1.336
13.472
4.56
3.854
1.372
5.146
2.498
13.756
1.606
1.01
3.806
2.798
5.008
1.198
7.242
5.73
2.92
1.83
5.096
4.572
2.708
2.6
2.82
1.296
4.284
2.466
1.298
8.652
5.964
1.54
2.926
1.5
3.146
2.936
4.638
1.402
2.65
9.806
16.864
2.82
1.236
2.432
1.362
1.13
2.326
6.174
1.65
1.108
2.942
1.3
9.348
5.998
1.502
1.304
7.206
2.492
2.908
1.298
2.694
7.654
8.678
5.942
2.406
1.2
5.402
1.59
1.698
2.904
1.502
2.494
9.584
3.228
2.798
3.902
7.2
1.2
2.714
4.236
1.5
1.302
2.888
1.3
1.308
15.814
4.904
5.622
2.716
6.71
1.112
1.292
8.55
1.196
5.374
4.524
1.732
1.22
9.176
1.108
1.394
1.106
1.5
1.2
1.104
5.508
3.158
8.804
1.502
1.49
9.474
1.298
2.798
1.634
2.248
1.408
8.742
5.36
11.37
2.404
1.19
1.106
1.194
2.7
1.602
1.306
1.2
3.816
2.604
7.07
1.306
-701.172
4.136
1.514
1.386
2.65
1.394
10.196
1.61
2.816
1.57
1.556
1.428
9.918
1.708
7.046
1.498
1.204
1.594
4.08
4.624
2.998
22.886
1.092
1.398
2.31
1.096
2.194
5.552
4.82
4.358
1.2
1.4
3.89
12.988
1.294
2.596
1.308
1.722
6.578
4.43
6.336
5.678
1.198
4.1
9.52
1.306
10.984
4.496
6.732
1.298
2.744
1.298
1.658
2.398
1.202
2.806
1.094
3.816
6.982
1.104
5.264
1.3
4.056
5.956
1.09
7.45
3.062
2.85
1.488
2.414
1.19
2.596
2.952
1.006
2.944
1.1
1.298
2.928
9.674
2.698
4.096
1.104
1.3
1.4
2.51
1.388
2.508
1.296
3.148
1.424
13.048
4.206
1.398
2.56
1.09
7.1
4.498
1.502
3.996
2.55
10.152
17.17
2.81
1.398
6.896
10.372
8.304
9.276
3.044
2.858
3.046
1.396
1.406
4.546
5.558
1.296
3.004
4.098
6.552
1.4
4.22
5.596
2.832
3.798
4.308
10.244
2.904
4.418
12.026
2.894
1.21
3.096
6.474
4.3
2.504
1.294
5.698
1.404
3.596
3.048
19.758
1.192
2.708
2.73
1.596
5.312
3.882
4.092
3.748
3.86
2.594
1.208
8.362
1.252
1.312
2.694
1.106
3.244
1.206
2.714
4.632
5.108
3.0
3.782
1.096
1.256
5.822
2.6
1.3
1.602
1.104
3.9
5.758
2.598
4.35
2.302
8.282
5.424
2.934
14.1
2.694
4.396
1.202
1.244
2.704
2.406
1.522
1.298
2.294
1.126
3.908
1.306
1.188
6.6
-719.836
5.196
1.308
10.894
1.29
1.11
4.972
2.496
2.398
2.506
2.294
1.304
5.682
1.188
3.05
6.398
1.404
1.504
3.934
2.698
1.396
8.354
2.8
1.29
3.15
9.35
2.594
2.802
1.298
1.412
2.74
2.702
3.678
1.502
18.25
5.646
0.994
1.408
2.692
2.41
2.494
3.972
16.254
1.308
1.198
2.492
8.526
4.246
1.602
7.558
8.838
2.506
3.992
4.538
1.304
2.352
2.592
5.098
2.7
1.208
2.69
3.798
1.108
2.496
1.3
3.696
3.5
2.864
5.196
1.5
1.39
4.008
2.696
1.298
1.11
1.098
1.298
2.79
5.662
1.296
1.094
3.776
7.006
5.476
2.888
1.298
2.502
1.102
1.398
1.104
1.298
2.602
2.498
2.396
7.754
4.33
2.094
1.104
6.746
3.4
1.2
9.148
1.106
13.512
1.298
1.198
7.04
9.75
1.11
5.338
3.812
1.188
5.714
1.298
1.292
3.698
1.21
6.186
1.502
4.914
1.384
1.606
1.104
2.604
1.2
5.288
2.702
9.6
9.632
1.392
2.306
1.192
1.502
2.398
1.112
2.492
1.3
3.61
8.468
3.896
1.298
4.672
8.126
1.404
1.198
4.0
1.4
1.108
6.19
1.206
11.146
2.726
6.86
3.716
5.026
1.4
3.398
8.054
6.846
5.006
3.292
1.204
1.398
1.202
4.054
1.296
3.472
1.502
5.07
2.708
2.296
1.208
1.39
1.098
1.212
1.204
8.448
14.138
0.998
1.21
5.972
4.404
2.602
2.592
1.306
3.192
1.2
10.87
4.81
2.492
6.432
8.15
4.33
1.092
1.5
-669.786
17.548
5.506
2.896
3.898
4.03
5.45
4.276
1.192
4.306
1.094
7.456
10.094
1.4
7.802
1.2
2.21
2.944
1.106
8.138
2.512
1.388
1.308
1.102
1.194
4.256
5.344
1.302
1.5
0.992
2.912
1.496
4.17
1.298
7.998
0.982
3.87
13.8
1.45
2.398
2.702
7.104
1.296
13.302
3.072
1.1
1.106
6.896
12.978
1.398
2.932
2.648
2.502
1.3
2.488
18.304
5.824
4.102
5.548
4.502
3.994
2.406
2.726
1.346
5.532
1.424
5.318
9.326
1.41
1.498
7.69
6.584
1.294
1.514
4.136
9.9
1.5
5.072
1.202
1.198
1.298
10.752
1.5
16.99
1.304
4.942
1.402
1.598
3.692
1.31
3.09
1.21
1.196
4.146
5.69
2.296
1.0
2.388
1.214
4.944
1.206
1.288
8.012
1.104
4.992
5.412
1.394
2.9
1.198
1.302
1.104
4.348
1.082
2.748
2.858
1.296
1.306
1.092
3.958
1.09
2.798
1.2
1.198
2.302
1.3
1.304
5.094
2.706
6.294
9.95
10.94
5.284
1.112
1.188
21.552
8.048
11.05
1.402
4.034
2.496
1.608
5.786
1.112
4.404
3.984
4.186
3.498
9.84
1.2
1.302
2.91
3.492
0.994
1.408
1.604
1.088
1.004
2.506
1.394
1.008
1.19
5.858
1.596
3.696
5.476
1.5
4.03
2.744
2.196
2.4
1.104
1.102
1.198
4.0
1.416
4.066
7.204
2.836
2.404
6.0
2.196
1.114
2.598
1.302
1.19
2.112
2.686
-710.92
7.102
3.254
1.68
0.996
2.652
4.192
1.298
4.058
1.502
11.77
16.226
1.1
2.496
5.576
4.7
1.396
1.304
2.3
3.614
1.198
1.2
2.798
1.444
1.104
1.192
1.11
1.29
4.714
2.558
2.49
1.108
1.098
2.704
1.1
1.004
5.36
2.396
3.494
1.298
8.46
4.596
1.094
3.506
1.296
1.102
1.202
2.604
1.1
4.24
3.914
2.84
2.304
4.242
4.798
1.1
28.806
5.47
1.1
7.476
5.12
8.354
2.728
1.398
6.246
1.106
3.112
1.298
0.994
2.696
2.306
3.796
1.298
10.858
3.014
3.708
1.608
2.19
5.802
8.198
2.218
7.01
6.72
3.604
9.35
1.298
6.344
10.412
8.81
4.906
1.154
2.224
1.322
2.65
30.876
1.406
5.198
5.246
1.032
2.488
1.11
1.29
1.106
1.3
2.378
9.47
1.694
6.11
1.11
1.61
2.68
1.192
1.208
1.102
2.502
2.636
2.406
4.324
3.304
1.094
2.802
1.312
7.056
2.704
1.402
3.748
2.826
1.504
4.22
5.628
2.506
2.302
2.724
1.194
2.294
2.752
1.31
2.19
1.206
6.566
1.008
1.194
4.436
1.186
1.3
5.56
4.496
2.732
8.728
1.196
1.5
0.994
2.5
3.008
28.314
1.2
5.306
1.388
2.202
2.416
5.556
1.108
9.972
5.224
5.29
12.616
1.416
1.598
1.404
2.3
1.3
5.33
2.81
2.942
9.624
1.202
2.612
1.302
6.91
1.302
1.444
1.41
1.196
1.296
1.41
7.516
2.4
3.768
3.936
2.566
9.056
11.252
3.716
1.106
3.598
2.498
6.206
3.618
3.902
-725.548
7.484
4.792
12.696
1.198
1.104
2.626
2.722
1.298
4.808
1.5
1.348
1.398
1.498
8.982
3.798
6.51
1.19
1.102
2.45
11.82
2.224
9.75
4.248
1.0
1.3
2.71
1.19
6.354
1.2
2.8
7.298
2.498
5.976
2.704
1.196
2.5
5.206
1.2
5.502
1.092
1.21
8.446
4.572
1.5
2.6
9.682
3.74
3.51
6.994
1.104
5.242
1.3
2.398
5.61
1.102
4.6
4.39
2.51
1.192
5.598
5.704
4.022
1.65
5.426
6.35
1.408
3.802
1.188
1.008
1.102
1.096
1.4
5.198
13.478
10.894
4.496
2.712
1.306
6.038
1.106
1.39
1.204
5.332
1.588
4.102
2.756
5.026
1.294
1.206
1.3
8.194
2.21
3.086
11.536
3.394
2.972
6.02
5.606
3.7
12.12
1.204
7.25
1.0
9.346
1.206
4.234
4.114
1.398
1.004
1.5
6.258
4.92
2.644
1.1
1.306
8.02
1.406
3.702
4.548
4.414
2.102
1.202
5.886
9.352
1.49
1.606
5.9
4.092
2.696
1.278
6.646
1.15
9.508
1.556
3.922
8.352
1.108
7.16
2.418
2.3
1.194
2.494
2.212
6.404
2.4
1.194
2.6
3.002
7.84
1.114
9.492
3.792
2.506
2.796
1.11
2.498
1.098
9.56
2.506
2.194
1.108
1.19
1.298
4.302
10.388
1.304
1.502
2.8
1.112
1.3
4.996
5.354
2.496
1.296
1.3
1.41
6.138
10.374
2.712
3.59
2.948
1.302
3.7
1.502
1.208
10.02
3.044
-699.904
21.15
5.196
12.528
2.2
4.634
9.894
15.142
2.702
1.094
1.302
5.758
1.798
1.106
4.146
6.298
4.198
14.98
9.43
7.918
5.1
2.296
3.696
1.206
5.048
4.3
1.296
6.608
1.2
3.956
24.416
1.006
8.54
4.812
5.416
1.1
1.298
2.304
2.8
5.228
1.604
1.392
2.562
1.584
1.1
6.71
5.324
1.204
1.19
1.208
2.494
2.306
1.198
1.296
2.748
4.146
2.552
5.482
6.852
10.542
1.408
1.392
1.404
1.502
8.474
1.102
0.998
6.994
2.668
5.594
1.098
10.422
2.892
6.256
1.098
2.806
1.142
0.954
2.694
2.654
5.638
37.994
4.002
2.704
9.098
1.196
1.298
1.198
4.006
2.388
2.41
5.444
6.498
2.732
5.002
1.498
2.292
2.952
1.4
2.918
3.052
2.728
2.4
2.398
3.72
1.204
3.104
2.806
1.29
7.412
1.292
1.198
7.798
4.524
1.106
7.35
2.202
1.508
1.096
4.968
1.394
1.202
1.198
1.2
4.102
7.748
4.53
1.104
5.466
1.38
10.448
3.138
1.296
2.406
49.384
1.2
2.8
1.096
2.708
5.216
3.104
1.204
1.5
0.996
5.8
2.378
6.168
1.534
3.796
7.024
2.602
4.204
1.308
1.294
1.306
2.688
8.06
2.492
4.034
1.292
1.8
1.202
3.594
1.31
4.148
5.918
2.558
5.404
3.844
1.308
2.388
6.858
1.19
2.65
2.502
5.174
1.604
6.602
2.62
2.706
1.192
1.3
7.1
3.9
-754.54
3.692
4.588
6.016
2.646
1.522
3.04
4.222
4.592
1.428
2.694
4.206
1.498
9.998
8.198
1.456
5.796
2.704
2.932
4.994
3.406
0.99
1.108
1.644
1.5
3.9
1.096
1.304
1.602
11.168
4.05
6.326
2.908
2.894
1.456
1.202
1.326
2.888
1.304
3.022
8.752
1.102
1.456
1.298
15.866
3.076
2.408
2.74
2.208
7.682
1.196
5.234
1.094
1.196
1.4
3.802
1.308
1.286
5.254
7.078
2.688
12.332
1.496
1.496
1.328
11.582
2.794
1.106
1.522
2.62
1.302
4.37
7.234
1.4
2.496
8.222
5.46
2.874
1.094
1.554
1.09
8.004
9.442
2.682
1.31
1.29
1.108
2.59
13.858
2.694
4.004
2.592
1.104
1.198
7.076
2.6
18.186
3.012
4.096
1.2
6.532
8.648
7.51
2.75
2.644
1.202
1.196
9.458
3.716
1.298
2.4
2.8
1.102
1.112
1.098
5.244
2.602
3.148
1.104
2.288
2.602
2.404
1.496
8.054
1.518
1.102
2.496
2.556
1.5
1.548
3.808
4.194
4.0
10.648
1.204
1.194
5.352
5.802
1.302
9.548
4.662
8.286
1.3
15.1
4.304
2.296
3.93
2.506
2.492
2.556
6.448
2.398
1.204
2.838
8.24
5.74
4.508
15.894
4.37
1.212
0.99
4.154
2.556
1.464
6.51
1.5
1.408
1.382
1.454
1.298
1.304
2.304
2.402
1.296
1.294
1.304
14.154
5.436
3.312
5.154
3.694
1.202
1.298
4.246
1.104
1.104
2.292
2.6
1.11
3.494
5.046
-705.606
1.096
6.546
1.3
2.75
2.756
3.6
3.598
1.298
1.31
1.29
2.502
1.098
1.204
2.596
1.202
2.508
1.294
4.104
1.504
1.186
1.412
2.892
1.1
2.504
1.006
2.29
5.48
1.192
8.474
2.61
0.996
1.202
5.804
8.198
4.242
1.004
1.196
2.506
2.692
4.11
5.42
1.188
2.52
5.65
2.696
8.188
1.304
9.768
1.298
4.206
2.436
3.592
4.346
7.45
27.428
2.65
6.802
5.348
1.254
6.994
3.974
1.202
2.728
4.072
20.646
2.596
4.382
2.506
1.498
1.196
1.304
2.954
3.922
4.152
2.792
1.102
2.206
1.192
4.636
6.24
1.098
7.902
1.208
4.148
2.6
8.692
1.104
3.5
2.604
1.1
1.392
3.956
2.296
1.298
4.35
2.576
5.352
1.006
2.944
1.406
1.194
1.5
4.208
2.398
32.526
5.794
2.502
5.076
4.206
3.608
7.934
1.21
1.296
1.194
2.65
14.822
1.536
2.412
1.498
1.296
1.184
11.548
1.502
3.064
2.816
2.194
1.202
2.476
2.74
9.994
2.746
3.496
4.958
1.2
3.698
9.542
1.31
1.198
11.05
5.292
1.606
2.894
2.73
0.992
8.248
1.406
3.896
1.102
3.498
28.498
12.156
2.84
1.306
3.806
1.302
2.292
1.504
3.95
1.294
2.502
1.202
2.846
3.926
6.55
1.854
10.504
2.538
1.424
1.212
1.194
1.604
6.98
1.39
2.8
6.134
2.594
9.398
2.798
7.752
4.104
1.546
2.302
1.394
4.006
5.004
1.294
3.834
1.094
5.018
1.198
1.102
0.998
4.28
7.18
4.196
2.824
1.606
1.102
2.844
2.296
-765.196
1.398
9.882
2.898
1.308
1.52
21.39
2.592
2.61
4.248
2.598
1.302
2.76
1.292
8.308
4.096
6.998
1.3
4.496
1.41
1.296
1.396
10.29
2.81
1.5
1.2
1.394
3.052
1.102
1.096
1.4
6.688
2.604
1.294
2.406
6.94
1.4
4.0
2.708
4.888
1.306
2.396
8.006
6.08
1.39
3.25
8.354
21.698
1.204
1.094
8.046
1.3
1.302
1.298
3.38
2.824
2.798
4.298
10.378
1.3
1.298
1.502
7.078
2.398
1.404
8.056
6.25
1.39
2.6
1.5
4.076
4.254
12.902
3.052
1.39
2.598
1.1
4.254
2.602
9.494
5.734
1.294
3.05
8.072
1.212
3.942
1.21
2.796
5.4
2.792
1.202
5.902
6.494
1.398
1.302
1.502
28.548
1.11
3.998
2.604
4.25
2.488
11.698
1.362
7.572
1.504
1.39
1.2
2.896
4.258
1.298
1.498
3.7
1.298
1.208
3.594
2.9
10.27
3.09
1.092
1.394
1.608
4.472
1.0
3.904
1.296
1.496
1.4
1.31
1.394
1.5
7.108
1.09
1.306
1.59
4.3
15.804
1.408
1.502
4.016
1.2
3.946
5.73
1.204
10.446
3.904
4.994
2.302
25.95
2.796
5.828
6.696
5.646
2.402
1.4
2.968
2.734
3.952
1.308
1.096
1.496
1.198
0.998
5.358
1.298
1.2
1.296
1.3
6.006
2.596
5.424
2.312
1.302
3.692
2.702
2.848
7.402
7.392
1.298
4.296
1.304
6.898
1.102
1.41
4.346
2.64
5.826
6.448
1.304
2.796
1.098
1.204
1.198
7.08
5.446
1.422
3.932
2.8
3.698
2.906
1.504
1.094
-737.528
3.896
3.09
4.35
1.292
4.496
1.424
3.424
16.064
1.39
1.398
5.332
8.55
3.06
2.544
4.81
4.746
1.604
2.998
9.402
3.64
1.5
8.11
4.844
1.906
2.402
4.876
4.102
1.212
6.188
1.206
2.594
7.744
2.706
2.498
1.298
2.3
10.182
1.194
12.852
5.604
5.196
1.402
1.408
2.496
1.394
4.31
35.938
2.808
7.294
1.202
2.696
3.852
1.096
4.58
2.602
5.252
1.592
1.702
5.458
6.55
1.19
8.6
1.204
5.546
2.598
2.598
2.306
7.348
5.826
6.4
1.196
1.408
5.042
1.7
2.5
6.936
12.436
1.108
1.798
1.798
7.69
2.794
1.102
7.148
3.094
1.308
1.596
2.506
4.222
10.328
1.49
1.006
1.29
78.456
1.598
1.81
1.59
7.408
6.402
1.196
4.17
4.106
1.702
2.288
5.93
1.506
1.14
2.95
2.628
5.718
1.298
6.754
1.194
3.746
3.596
3.042
5.344
1.41
1.194
1.204
8.152
1.196
8.106
8.768
2.406
1.204
6.04
9.348
5.656
1.194
11.004
1.2
11.296
2.706
6.596
1.002
1.7
3.004
2.59
76.372
1.298
2.204
2.202
2.698
1.2
1.11
1.202
2.398
3.992
1.41
7.544
10.976
2.694
7.258
3.416
2.598
5.51
2.29
2.706
1.296
2.398
4.682
1.394
15.428
4.33
1.704
1.388
2.656
1.398
1.394
1.704
2.848
1.2
4.924
2.83
3.794
3.28
6.914
1.212
1.796
1.2
2.1
1.202
4.344
3.254
1.222
1.114
9.414
2.642
6.11
1.192
1.208
-909.516
1.298
1.328
1.298
1.748
7.974
1.406
1.192
4.56
2.672
2.624
4.748
2.806
6.598
1.21
3.91
4.096
1.198
2.796
1.114
1.3
1.306
2.594
1.508
1.2
1.298
5.152
1.292
1.5
10.12
1.81
1.192
11.63
7.896
3.85
2.712
2.81
1.194
1.306
1.51
1.298
2.548
2.604
9.698
7.62
1.31
2.396
1.298
3.054
6.714
7.534
1.51
5.788
4.438
61.808
9.446
4.31
1.204
1.494
2.392
1.31
1.5
1.4
2.488
7.8
1.412
1.188
2.798
2.852
3.25
1.104
1.526
4.554
1.306
5.8
1.124
1.466
1.232
3.912
1.132
1.42
1.11
4.246
1.316
7.736
8.376
10.916
8.888
5.29
1.3
2.602
1.422
1.802
6.022
1.36
1.288
1.408
1.404
3.246
2.948
2.518
1.226
2.854
4.148
1.394
3.116
3.846
6.73
4.112
49.032
1.416
2.748
2.508
1.13
1.476
7.1
1.3
2.488
7.906
1.092
4.238
4.342
8.3
4.248
1.224
9.7
10.826
3.796
3.154
1.498
1.11
2.814
7.604
1.306
1.396
1.312
15.934
4.032
13.016
4.314
2.75
4.31
1.704
1.582
2.69
7.002
5.302
7.654
1.398
2.6
1.298
1.298
64.892
4.206
4.55
3.76
5.422
1.19
1.116
1.294
1.198
2.97
1.398
1.1
3.158
2.818
13.66
1.198
4.144
1.506
8.918
6.404
12.402
8.626
10.552
1.544
3.996
7.85
1.502
1.108
1.212
8.002
4.68
1.006
3.004
1.306
1.406
1.192
1.408
2.446
7.152
2.5
8.26
1.39
2.506
-866.28
1.5
1.234
7.462
3.728
2.64
2.696
1.11
8.624
6.758
7.604
5.658
2.51
1.224
1.298
1.204
2.504
1.504
2.594
4.406
1.402
3.79
2.422
3.7
5.974
4.374
5.514
1.388
1.358
7.942
1.254
4.354
2.624
5.766
2.204
1.402
3.602
3.646
1.308
2.85
2.828
1.296
5.796
1.394
4.05
6.204
3.096
2.602
6.678
2.526
2.398
6.902
1.296
3.502
1.3
1.008
2.624
1.502
1.292
2.65
2.398
1.298
1.214
0.994
1.294
4.52
3.698
7.03
9.158
8.15
1.398
10.146
1.006
1.198
6.676
2.442
7.01
8.472
2.496
2.928
3.894
4.228
5.208
1.092
5.468
1.218
1.186
3.172
4.004
2.896
1.21
1.19
3.608
2.304
3.788
1.412
1.296
4.146
1.102
5.956
6.492
9.424
1.202
2.598
1.198
1.406
5.892
3.502
6.65
3.958
1.192
1.408
6.554
1.194
3.592
7.864
3.494
5.002
8.196
2.2
4.322
5.252
5.008
1.298
3.704
1.0
1.19
1.302
1.006
1.098
1.392
7.25
3.606
0.99
6.188
12.92
2.492
1.214
3.596
1.194
6.704
2.904
9.342
2.6
18.85
0.894
1.612
3.494
1.998
11.274
1.402
10.556
0.996
4.156
3.592
1.408
6.094
1.298
2.502
3.848
5.636
4.744
2.694
1.108
8.318
10.086
6.094
1.396
15.816
7.398
9.868
2.44
4.824
2.934
1.26
5.884
1.418
1.208
1.202
1.102
6.844
0.998
6.86
-683.818
4.34
3.798
1.21
2.296
6.09
1.202
5.314
1.296
2.498
1.096
1.31
2.538
1.3
1.3
5.556
4.792
7.804
1.206
1.496
7.084
2.4
0.994
1.194
3.608
1.296
3.548
1.0
1.186
5.044
3.506
5.946
3.898
7.45
2.946
2.802
4.954
2.49
2.702
1.31
7.464
12.294
1.202
8.53
14.148
3.994
1.406
1.194
9.712
2.54
1.1
6.736
1.29
3.002
1.306
2.494
2.6
7.86
1.092
6.51
5.688
2.196
1.21
3.856
4.912
3.904
6.71
3.91
3.694
7.562
4.996
6.854
1.296
1.398
1.298
2.854
9.526
4.156
0.996
2.402
6.594
9.956
1.092
3.698
1.312
4.198
36.0
5.374
4.5
2.696
4.7
2.196
4.93
1.006
3.794
1.404
1.294
3.406
1.396
11.62
2.61
2.394
1.592
5.47
1.102
5.092
1.108
3.702
1.402
1.298
2.2
1.098
2.604
2.5
6.35
7.21
0.996
0.996
6.15
6.444
11.102
5.13
1.1
10.922
2.454
3.792
2.462
1.192
1.1
1.502
1.398
1.198
21.984
3.992
5.558
1.088
6.334
15.87
3.81
1.202
2.536
9.426
5.362
1.506
4.802
2.4
11.786
2.218
2.502
3.646
1.404
2.398
1.1
4.406
2.196
1.298
3.548
1.108
1.206
5.684
3.712
3.79
2.202
2.4
2.596
1.204
6.858
2.196
1.104
5.646
1.096
10.748
4.71
3.798
-702.478
1.098
4.026
4.148
8.59
3.804
10.904
2.496
1.204
3.876
1.396
2.196
1.208
2.498
1.5
2.4
5.248
10.738
1.094
1.444
0.998
3.95
5.51
2.388
6.302
5.802
6.796
1.6
5.204
4.342
7.154
1.3
3.0
1.004
5.998
1.3
2.398
1.304
12.124
4.398
1.612
1.094
7.982
9.738
4.076
2.7
2.948
10.554
1.606
1.802
1.186
2.6
3.714
1.686
4.312
1.298
2.992
1.298
5.932
1.368
2.588
2.836
5.154
1.402
1.202
1.008
5.198
1.088
5.512
1.198
7.522
4.004
5.5
2.398
5.016
4.474
3.95
2.6
2.86
3.838
3.808
1.096
3.496
3.704
1.198
3.858
8.69
2.402
9.3
4.41
1.196
1.294
1.496
13.46
3.674
4.2
4.026
5.85
6.202
5.598
5.844
1.196
1.1
1.102
6.298
2.21
1.19
5.11
5.55
1.496
1.194
5.352
1.302
3.834
0.988
3.762
1.39
1.2
1.21
2.744
1.404
2.688
3.302
1.206
3.904
1.386
3.348
3.994
1.294
2.542
1.626
2.896
3.806
2.296
1.208
3.99
2.204
3.998
13.15
2.702
2.2
1.306
1.382
2.608
2.514
2.098
10.704
1.396
5.152
5.794
1.294
15.026
4.102
5.804
1.296
1.5
6.672
5.158
2.78
2.488
1.206
1.192
2.858
2.448
2.292
3.652
4.026
20.054
1.092
1.308
2.194
1.404
3.594
1.408
1.192
1.306
1.502
1.492
1.204
7.396
3.806
7.268
1.204
2.45
4.07
1.204
1.502
1.2
10.746
10.434
-667.094
2.602
1.1
5.964
2.754
11.166
16.054
15.602
1.296
1.102
2.8
2.402
1.294
1.198
3.256
4.892
2.608
5.22
10.326
3.598
2.704
1.546
4.68
1.202
5.042
4.14
2.798
8.25
1.188
9.43
10.968
15.946
2.304
1.196
1.298
6.308
1.39
17.88
2.606
3.902
2.496
2.596
2.6
2.906
4.104
5.444
2.704
8.298
1.204
5.298
3.74
1.21
8.754
5.046
9.794
1.096
3.154
2.698
10.25
1.35
1.262
1.208
2.636
1.106
3.148
5.196
4.67
8.404
7.098
1.098
7.3
20.426
1.104
1.192
6.562
2.404
1.294
1.3
1.594
9.0
1.21
1.888
5.856
3.142
2.806
8.292
1.3
2.61
1.296
2.702
2.9
6.872
1.4
1.108
1.402
1.394
1.306
1.294
4.15
4.274
1.294
4.21
4.288
1.502
1.208
7.994
6.708
5.29
1.508
7.69
1.398
1.204
2.748
1.106
4.186
1.212
4.346
21.304
1.502
18.196
1.412
2.624
5.688
5.102
2.296
4.884
1.602
2.598
4.158
2.69
4.902
2.396
8.956
3.79
17.276
1.21
5.45
4.138
5.55
1.11
1.388
1.104
6.754
1.108
3.674
1.474
2.472
4.942
6.9
5.446
10.98
1.098
1.204
8.752
1.304
1.292
3.996
2.712
6.096
5.344
-715.394
2.792
1.5
6.334
2.992
6.138
1.69
4.72
9.9
5.574
10.76
4.292
15.976
5.848
1.502
5.4
1.3
5.748
1.598
1.502
1.254
1.476
3.342
1.53
1.25
1.52
1.5
5.852
7.6
5.6
1.43
5.668
4.214
4.188
4.296
1.604
3.13
1.502
1.604
1.3
3.316
11.704
9.392
1.602
1.102
2.976
4.3
3.994
17.586
7.324
1.596
2.596
2.752
3.002
3.254
1.498
4.498
2.696
2.358
1.09
4.154
1.202
1.526
2.58
1.09
1.006
4.752
1.39
2.756
1.104
2.958
7.408
3.946
3.204
6.674
3.838
2.796
12.668
1.602
1.48
7.58
3.992
5.212
2.94
3.15
4.55
1.506
3.1
7.986
13.326
18.128
3.41
4.756
2.964
1.822
2.53
6.614
1.522
5.288
1.694
4.726
11.002
1.096
1.594
9.838
2.89
1.626
5.976
1.906
5.442
1.604
1.194
5.052
1.092
9.156
1.1
1.8
1.398
3.004
10.524
1.946
1.516
1.1
1.2
1.79
9.15
3.6
12.42
3.202
2.804
4.898
10.348
4.73
3.124
4.402
4.494
20.352
4.244
2.906
1.658
6.194
1.722
4.426
2.606
14.97
6.474
1.806
1.352
3.2
2.896
1.606
2.896
2.996
1.802
12.368
1.356
7.632
1.088
1.704
1.522
10.704
2.808
1.596
1.59
1.312
1.29
1.586
1.596
3.292
1.658
1.418
1.104
4.104
1.522
6.616
5.974
4.15
2.398
14.178
8.002
7.7
3.206
1.596
1.3
4.058
1.59
-746.176
4.74
1.5
2.75
4.276
1.296
1.254
7.076
1.634
3.912
2.9
4.162
3.244
2.504
5.768
7.532
2.592
10.102
3.696
1.502
5.252
4.296
2.802
14.282
1.596
1.308
5.314
1.2
1.408
1.292
4.248
7.408
9.978
3.904
1.292
4.252
5.498
3.604
9.522
5.084
1.506
32.464
2.488
3.056
2.594
1.108
10.388
1.492
3.098
0.994
3.118
1.004
2.6
5.952
1.41
2.51
4.7
5.204
1.2
1.398
3.508
3.944
8.724
3.6
5.354
4.796
4.46
1.298
1.39
5.698
1.202
2.658
8.338
5.764
1.196
1.298
9.336
1.488
1.612
2.856
2.542
1.298
4.908
1.384
4.412
6.708
1.092
2.502
3.688
1.212
1.396
1.2
0.998
1.304
24.616
4.394
2.748
5.3
5.006
5.094
5.3
1.212
1.392
2.696
1.206
1.394
2.61
4.236
2.6
3.996
2.906
1.294
6.708
1.75
4.252
2.606
4.184
8.014
8.318
1.298
1.304
3.898
1.652
4.51
1.096
1.394
1.41
2.288
4.562
1.474
2.896
2.604
2.55
3.698
5.396
5.044
1.65
4.032
5.142
6.29
2.892
1.298
1.5
1.21
3.798
38.984
8.056
1.65
2.748
2.8
1.1
9.45
1.1
1.412
1.54
1.298
3.9
7.148
5.708
5.34
3.606
1.2
1.3
1.2
6.45
1.198
3.122
1.188
3.054
3.016
3.004
8.788
4.208
1.392
1.098
2.908
3.804
3.998
7.594
2.708
2.542
5.7
1.504
1.308
3.788
7.136
2.288
2.508
1.366
1.104
2.598
4.076
3.5
1.496
3.158
-760.948
1.51
2.402
4.342
5.146
11.856
2.648
4.242
1.202
1.2
4.352
2.61
1.388
1.1
4.358
3.3
1.522
4.682
2.646
5.444
3.532
1.298
2.342
1.514
2.744
2.752
1.402
5.442
1.3
4.126
0.996
0.996
2.704
2.302
2.81
2.698
5.246
2.532
1.39
8.4
6.826
2.724
10.1
5.552
1.304
2.744
13.724
2.906
13.708
5.288
4.352
1.194
2.514
0.992
6.58
0.998
4.158
2.884
1.222
3.614
3.946
1.542
3.612
3.694
7.252
8.23
1.24
5.5
7.756
12.542
1.5
1.65
2.5
5.854
1.296
1.41
6.79
4.35
6.732
7.8
1.6
2.902
3.39
2.652
8.306
4.014
1.31
2.824
1.194
2.608
1.092
4.13
38.144
1.324
2.502
5.3
1.308
1.294
3.002
2.808
1.298
10.348
1.316
2.786
2.3
1.5
2.414
8.63
5.212
5.556
1.21
2.3
2.848
1.504
2.816
5.6
3.126
2.506
3.094
2.398
1.298
1.5
2.83
2.824
1.408
3.966
3.06
4.02
2.84
1.212
4.228
1.088
1.502
1.206
2.794
10.448
1.108
1.398
1.504
1.39
4.008
1.112
4.13
1.61
4.44
6.65
2.542
3.806
3.05
1.102
1.104
21.526
1.304
1.194
6.6
1.2
1.208
1.096
1.002
1.396
1.298
1.4
6.42
2.754
9.65
8.996
1.3
5.436
8.59
1.404
2.896
5.492
1.408
8.548
5.748
1.304
5.262
1.242
2.678
3.72
2.43
12.352
1.296
4.038
1.202
1.2
1.306
2.406
2.596
8.244
9.642
1.386
1.506
1.498
1.2
1.298
6.298
4.926
-764.02
1.496
2.952
1.18
1.298
8.262
2.69
8.024
1.25
5.836
1.496
2.302
5.694
1.102
1.496
4.176
2.5
7.15
1.098
1.32
5.142
8.684
7.554
5.86
0.992
1.608
1.296
1.104
1.294
2.494
1.004
3.048
1.202
13.428
6.616
10.96
5.76
2.842
4.126
7.168
2.212
4.292
8.898
1.196
1.202
7.396
6.704
2.798
1.298
3.014
3.686
9.5
1.454
1.298
1.498
1.602
9.19
1.496
1.268
1.002
1.454
2.992
6.892
1.438
2.85
5.14
1.158
1.14
5.558
3.17
4.698
5.83
2.906
4.32
2.692
2.404
2.5
7.776
15.43
8.592
4.21
2.888
5.464
1.414
2.752
7.8
1.31
4.336
3.8
1.708
1.296
1.402
1.298
52.076
2.498
6.14
6.186
4.146
2.71
2.396
12.322
2.702
5.946
13.128
1.62
1.356
1.272
1.358
2.726
2.992
2.504
1.696
1.308
7.014
5.882
2.404
10.746
1.104
7.346
6.306
11.89
1.008
2.192
7.56
2.694
16.672
1.298
1.394
4.508
5.302
4.82
36.082
5.64
1.096
3.05
4.302
2.402
3.906
3.59
1.306
1.598
7.302
1.4
1.496
1.502
1.4
4.676
1.398
3.934
5.576
4.668
15.728
2.244
9.812
1.396
1.5
2.792
1.5
1.108
6.896
1.402
1.002
5.996
1.606
1.638
6.608
1.504
1.19
15.404
1.5
1.598
1.604
1.408
2.088
10.756
1.394
1.306
3.292
3.308
9.168
-780.976
8.508
4.13
5.712
5.446
2.552
1.202
3.042
2.608
2.498
1.296
5.932
1.102
1.546
4.11
5.198
1.2
2.796
8.046
1.298
1.298
5.01
1.4
1.3
3.138
1.404
2.604
1.298
2.498
3.624
2.408
3.792
4.264
3.914
2.748
1.306
2.302
1.194
3.6
5.41
1.386
1.302
1.404
1.3
1.208
2.294
3.652
9.492
2.736
1.292
7.45
2.506
2.3
10.82
2.894
1.21
7.84
3.048
3.3
1.438
2.59
5.784
1.1
2.748
4.124
1.19
5.486
1.294
5.23
2.574
11.202
2.594
2.796
6.282
3.2
3.972
0.996
4.904
1.5
1.406
1.214
1.404
7.132
5.348
1.194
3.9
9.202
1.104
2.7
5.79
1.612
1.298
8.248
1.096
1.202
0.992
1.502
2.2
3.61
1.292
1.21
3.624
2.088
4.214
1.392
1.4
0.998
18.224
1.106
1.294
4.306
1.19
4.254
3.946
2.6
3.988
1.396
4.904
2.4
3.846
2.396
3.498
3.854
4.148
5.194
1.302
5.504
2.672
4.41
3.988
3.78
1.1
1.196
7.124
1.098
1.004
5.104
2.596
1.306
0.994
2.798
7.602
4.9
4.948
2.908
2.694
5.156
1.296
4.896
2.604
1.108
1.196
3.838
8.804
4.034
1.19
3.604
1.408
1.2
1.094
25.218
6.73
2.644
2.656
7.854
2.94
1.304
2.726
1.206
2.692
4.25
3.498
6.004
2.622
2.726
1.252
1.022
3.622
1.102
1.298
3.854
1.5
5.808
2.798
4.146
9.694
1.006
1.196
1.098
6.558
4.05
1.302
2.598
0.996
2.598
2.51
4.896
6.474
1.102
8.604
4.04
2.51
2.642
1.098
3.608
2.492
